c:\users\fury\desktop\2017006144\a1.vms
C 1s/7
	Characteristic Energy eV	1486.69	Acquisition Time s	0.3
KE_C 1s/7	BE_C 1s/7	CPS_C 1s/7	C 1s_1_C 1s/7	C 1s_2_C 1s/7	C 1s_3_C 1s/7	C 1s_4_C 1s/7	C 1s_5_C 1s/7	Background_C 1s/7	Envelope_C 1s/7
1188.59	298.096	1326.67	1326.67	1326.67	1326.67	1326.67	1326.67	1326.67	1326.67
1188.64	298.046	1253.33	1253.33	1253.33	1253.33	1253.33	1253.33	1253.33	1253.33
1188.69	297.996	1263.33	1263.33	1263.33	1263.33	1263.33	1263.33	1263.33	1263.33
1188.74	297.946	1273.33	1273.33	1273.33	1273.33	1273.33	1273.33	1273.33	1273.33
1188.79	297.896	1293.33	1293.33	1293.33	1293.33	1293.33	1293.33	1293.33	1293.33
1188.84	297.846	1343.33	1343.33	1343.33	1343.33	1343.33	1343.33	1343.33	1343.33
1188.89	297.796	1233.33	1233.33	1233.33	1233.33	1233.33	1233.33	1233.33	1233.33
1188.94	297.746	1203.33	1203.33	1203.33	1203.33	1203.33	1203.33	1203.33	1203.33
1188.99	297.696	1320	1320	1320	1320	1320	1320	1320	1320
1189.04	297.646	1363.33	1363.33	1363.33	1363.33	1363.33	1363.33	1363.33	1363.33
1189.09	297.596	1156.67	1156.67	1156.67	1156.67	1156.67	1156.67	1156.67	1156.67
1189.14	297.546	1216.67	1216.67	1216.67	1216.67	1216.67	1216.67	1216.67	1216.67
1189.19	297.496	1223.33	1223.33	1223.33	1223.33	1223.33	1223.33	1223.33	1223.33
1189.24	297.446	1280	1280	1280	1280	1280	1280	1280	1280
1189.29	297.396	1193.33	1193.33	1193.33	1193.33	1193.33	1193.33	1193.33	1193.33
1189.34	297.346	1283.33	1283.33	1283.33	1283.33	1283.33	1283.33	1283.33	1283.33
1189.39	297.296	1263.33	1263.33	1263.33	1263.33	1263.33	1263.33	1263.33	1263.33
1189.44	297.246	1216.67	1216.67	1216.67	1216.67	1216.67	1216.67	1216.67	1216.67
1189.49	297.196	1326.67	1326.67	1326.67	1326.67	1326.67	1326.67	1326.67	1326.67
1189.54	297.146	1263.33	1263.33	1263.33	1263.33	1263.33	1263.33	1263.33	1263.33
1189.59	297.096	1236.67	1236.67	1236.67	1236.67	1236.67	1236.67	1236.67	1236.67
1189.64	297.046	1200	1200	1200	1200	1200	1200	1200	1200
1189.69	296.996	1163.33	1163.33	1163.33	1163.33	1163.33	1163.33	1163.33	1163.33
1189.74	296.946	1190	1190	1190	1190	1190	1190	1190	1190
1189.79	296.896	1143.33	1143.33	1143.33	1143.33	1143.33	1143.33	1143.33	1143.33
1189.84	296.846	1143.33	1143.33	1143.33	1143.33	1143.33	1143.33	1143.33	1143.33
1189.89	296.796	1173.33	1173.33	1173.33	1173.33	1173.33	1173.33	1173.33	1173.33
1189.94	296.746	1213.33	1213.33	1213.33	1213.33	1213.33	1213.33	1213.33	1213.33
1189.99	296.696	1133.33	1133.33	1133.33	1133.33	1133.33	1133.33	1133.33	1133.33
1190.04	296.646	1120	1120	1120	1120	1120	1120	1120	1120
1190.09	296.596	1123.33	1123.33	1123.33	1123.33	1123.33	1123.33	1123.33	1123.33
1190.14	296.546	1143.33	1143.33	1143.33	1143.33	1143.33	1143.33	1143.33	1143.33
1190.19	296.496	1260	1260	1260	1260	1260	1260	1260	1260
1190.24	296.446	1260	1260	1260	1260	1260	1260	1260	1260
1190.29	296.396	1196.67	1196.67	1196.67	1196.67	1196.67	1196.67	1196.67	1196.67
1190.34	296.346	1146.67	1146.67	1146.67	1146.67	1146.67	1146.67	1146.67	1146.67
1190.39	296.296	1150	1150	1150	1150	1150	1150	1150	1150
1190.44	296.246	1033.33	1033.33	1033.33	1033.33	1033.33	1033.33	1033.33	1033.33
1190.49	296.196	996.667	996.667	996.667	996.667	996.667	996.667	996.667	996.667
1190.54	296.146	1190	1190	1190	1190	1190	1190	1190	1190
1190.59	296.096	1166.67	1166.67	1166.67	1166.67	1166.67	1166.67	1166.67	1166.67
1190.64	296.046	1116.67	1116.67	1116.67	1116.67	1116.67	1116.67	1116.67	1116.67
1190.69	295.996	1130	1130	1130	1130	1130	1130	1130	1130
1190.74	295.946	1170	1170	1170	1170	1170	1170	1170	1170
1190.79	295.896	1156.67	1156.67	1156.67	1156.67	1156.67	1156.67	1156.67	1156.67
1190.84	295.846	1173.33	1173.33	1173.33	1173.33	1173.33	1173.33	1173.33	1173.33
1190.89	295.796	1096.67	1096.67	1096.67	1096.67	1096.67	1096.67	1096.67	1096.67
1190.94	295.746	1263.33	1263.33	1263.33	1263.33	1263.34	1263.33	1263.33	1263.34
1190.99	295.696	1156.67	1156.67	1156.67	1156.67	1156.67	1156.67	1156.67	1156.67
1191.04	295.646	1033.33	1033.33	1033.33	1033.33	1033.34	1033.33	1033.33	1033.34
1191.09	295.596	1216.67	1216.67	1216.67	1216.67	1216.67	1216.67	1216.67	1216.67
1191.14	295.546	1136.67	1136.67	1136.67	1136.67	1136.67	1136.67	1136.67	1136.67
1191.19	295.496	1143.33	1143.33	1143.33	1143.33	1143.34	1143.33	1143.33	1143.34
1191.24	295.446	1093.33	1093.33	1093.33	1093.33	1093.34	1093.33	1093.33	1093.34
1191.29	295.396	1026.67	1026.67	1026.67	1026.67	1026.68	1026.67	1026.67	1026.68
1191.34	295.346	1120	1120	1120	1120	1120.02	1120	1120	1120.02
1191.39	295.296	1030	1030	1030	1030	1030.02	1030	1030	1030.02
1191.44	295.246	1043.33	1043.33	1043.33	1043.33	1043.36	1043.33	1043.33	1043.36
1191.49	295.196	1100	1100	1100	1100	1100.03	1100	1100	1100.03
1191.54	295.146	1046.67	1046.67	1046.67	1046.67	1046.7	1046.67	1046.67	1046.7
1191.59	295.096	1000	1000	1000	1000	1000.05	1000	1000	1000.05
1191.64	295.046	1066.67	1066.67	1066.67	1066.67	1066.72	1066.67	1066.67	1066.72
1191.69	294.996	1146.67	1146.67	1146.67	1146.67	1146.74	1146.67	1146.67	1146.74
1191.74	294.946	1036.67	1036.67	1036.67	1036.67	1036.75	1036.67	1036.67	1036.75
1191.79	294.896	1056.67	1056.67	1056.67	1056.67	1056.77	1056.67	1056.67	1056.77
1191.84	294.846	1073.33	1073.33	1073.33	1073.33	1073.46	1073.33	1073.33	1073.46
1191.89	294.796	1036.67	1036.67	1036.67	1036.67	1036.82	1036.67	1036.67	1036.82
1191.94	294.746	1120	1120	1120	1120	1120.19	1120	1120	1120.19
1191.99	294.696	1143.33	1143.33	1143.33	1143.33	1143.57	1143.33	1143.33	1143.57
1192.04	294.646	1053.33	1053.33	1053.33	1053.33	1053.61	1053.33	1053.33	1053.61
1192.09	294.596	1013.33	1013.33	1013.33	1013.33	1013.67	1013.33	1013.33	1013.67
1192.14	294.546	1126.67	1126.67	1126.67	1126.67	1127.08	1126.67	1126.67	1127.08
1192.19	294.496	1020	1020	1020	1020	1020.5	1020	1020	1020.5
1192.24	294.446	1060	1060	1060	1060	1060.6	1060	1060	1060.6
1192.29	294.396	976.667	976.667	976.667	976.667	977.386	976.667	976.667	977.386
1192.34	294.346	1063.33	1063.33	1063.33	1063.33	1064.2	1063.33	1063.33	1064.2
1192.39	294.296	950	950	950	950	951.032	950	950	951.032
1192.44	294.246	963.333	963.333	963.333	963.333	964.566	963.333	963.333	964.566
1192.49	294.196	1066.67	1042.2	1042.2	1042.2	1043.67	1042.2	1042.2	1043.67
1192.54	294.146	1096.67	1042.16	1042.16	1042.16	1043.9	1042.16	1042.16	1043.9
1192.59	294.096	970	1042.1	1042.1	1042.1	1044.17	1042.1	1042.1	1044.17
1192.64	294.046	1000	1042.06	1042.06	1042.06	1044.52	1042.06	1042.06	1044.52
1192.69	293.996	1073.33	1042.04	1042.04	1042.04	1044.94	1042.04	1042.04	1044.94
1192.74	293.946	1030	1042.03	1042.03	1042.03	1045.46	1042.03	1042.03	1045.46
1192.79	293.896	1046.67	1042.03	1042.03	1042.03	1046.06	1042.03	1042.03	1046.06
1192.84	293.846	976.667	1041.97	1041.97	1041.97	1046.71	1041.97	1041.97	1046.71
1192.89	293.796	1020	1041.95	1041.95	1041.95	1047.51	1041.95	1041.95	1047.51
1192.94	293.746	986.667	1041.91	1041.91	1041.91	1048.41	1041.91	1041.91	1048.41
1192.99	293.696	1050	1041.9	1041.9	1041.9	1049.5	1041.9	1041.9	1049.5
1193.04	293.646	983.333	1041.85	1041.85	1041.85	1050.7	1041.85	1041.85	1050.7
1193.09	293.596	1056.67	1041.84	1041.84	1041.84	1052.13	1041.84	1041.84	1052.13
1193.14	293.546	1040	1041.84	1041.84	1041.84	1053.77	1041.84	1041.84	1053.77
1193.19	293.496	1013.33	1041.82	1041.82	1041.82	1055.63	1041.82	1041.82	1055.63
1193.24	293.446	1066.67	1041.8	1041.8	1041.8	1057.75	1041.8	1041.8	1057.75
1193.29	293.396	1150	1041.71	1041.71	1041.71	1060.1	1041.71	1041.71	1060.1
1193.34	293.346	1190	1041.59	1041.59	1041.59	1062.74	1041.59	1041.59	1062.74
1193.39	293.296	1130	1041.51	1041.51	1041.51	1065.8	1041.51	1041.51	1065.8
1193.44	293.246	963.333	1041.45	1041.45	1041.45	1069.26	1041.45	1041.45	1069.26
1193.49	293.196	1056.67	1041.44	1041.44	1041.44	1073.22	1041.44	1041.44	1073.22
1193.54	293.146	1090	1041.4	1041.4	1041.4	1077.64	1041.4	1041.4	1077.65
1193.59	293.096	1096.67	1041.35	1041.35	1041.35	1082.6	1041.35	1041.35	1082.6
1193.64	293.046	1100	1041.31	1041.31	1041.31	1088.14	1041.31	1041.31	1088.14
1193.69	292.996	1103.33	1041.25	1041.26	1041.25	1094.32	1041.25	1041.25	1094.32
1193.74	292.946	1146.67	1041.17	1041.17	1041.17	1101.16	1041.17	1041.17	1101.16
1193.79	292.896	1126.67	1041.1	1041.1	1041.1	1108.77	1041.1	1041.1	1108.78
1193.84	292.846	1156.67	1041	1041.01	1041	1117.18	1041	1041	1117.18
1193.89	292.796	1100	1040.96	1040.96	1040.96	1126.51	1040.96	1040.96	1126.51
1193.94	292.746	1180	1040.84	1040.85	1040.84	1136.71	1040.84	1040.84	1136.72
1193.99	292.696	1146.67	1040.76	1040.76	1040.76	1147.97	1040.76	1040.76	1147.97
1194.04	292.646	1096.67	1040.71	1040.72	1040.71	1160.36	1040.71	1040.71	1160.36
1194.09	292.596	1090	1040.67	1040.68	1040.67	1173.88	1040.67	1040.67	1173.89
1194.14	292.546	1196.67	1040.54	1040.56	1040.54	1188.51	1040.54	1040.54	1188.53
1194.19	292.496	1173.33	1040.43	1040.46	1040.43	1204.41	1040.43	1040.43	1204.43
1194.24	292.446	1186.67	1040.31	1040.35	1040.31	1221.6	1040.31	1040.31	1221.63
1194.29	292.396	1243.33	1040.15	1040.2	1040.15	1240.08	1040.15	1040.15	1240.13
1194.34	292.346	1293.33	1039.94	1040.01	1039.94	1259.91	1039.94	1039.94	1259.97
1194.39	292.296	1203.33	1039.81	1039.9	1039.81	1281.22	1039.81	1039.81	1281.31
1194.44	292.246	1280	1039.61	1039.74	1039.61	1303.9	1039.61	1039.61	1304.03
1194.49	292.196	1366.67	1039.34	1039.52	1039.34	1327.95	1039.34	1039.34	1328.14
1194.54	292.146	1280	1039.14	1039.39	1039.14	1353.51	1039.14	1039.14	1353.76
1194.59	292.096	1326.67	1038.91	1039.25	1038.91	1380.43	1038.91	1038.91	1380.78
1194.64	292.046	1430	1038.59	1039.06	1038.59	1408.65	1038.59	1038.59	1409.11
1194.69	291.996	1423.33	1038.27	1038.91	1038.27	1438.18	1038.27	1038.27	1438.81
1194.74	291.946	1406.67	1037.97	1038.83	1037.97	1468.96	1037.97	1037.97	1469.81
1194.79	291.896	1543.33	1037.56	1038.7	1037.56	1500.77	1037.56	1037.56	1501.91
1194.84	291.846	1520	1037.16	1038.7	1037.16	1533.61	1037.16	1037.16	1535.14
1194.89	291.796	1560	1036.74	1038.77	1036.74	1567.28	1036.74	1036.74	1569.31
1194.94	291.746	1556.67	1036.31	1039.01	1036.31	1601.66	1036.31	1036.31	1604.35
1194.99	291.696	1706.67	1035.76	1039.31	1035.76	1636.42	1035.76	1035.76	1639.96
1195.04	291.646	1730	1035.19	1039.86	1035.19	1671.45	1035.2	1035.19	1676.11
1195.09	291.596	1796.67	1034.57	1040.65	1034.57	1706.48	1034.57	1034.57	1712.57
1195.14	291.546	1773.33	1033.97	1041.87	1033.97	1741.33	1033.97	1033.97	1749.24
1195.19	291.496	1733.33	1033.39	1043.63	1033.39	1775.73	1033.4	1033.39	1785.97
1195.24	291.446	1903.33	1032.68	1045.84	1032.68	1809.23	1032.68	1032.68	1822.38
1195.29	291.396	2003.33	1031.89	1048.79	1031.89	1841.57	1031.89	1031.89	1858.47
1195.34	291.346	1930	1031.15	1052.66	1031.15	1872.59	1031.16	1031.15	1894.1
1195.39	291.296	2020	1030.34	1057.73	1030.34	1901.83	1030.35	1030.34	1929.21
1195.44	291.246	1896.67	1029.64	1064.21	1029.64	1929.1	1029.64	1029.64	1963.68
1195.49	291.196	1920	1028.91	1072.44	1028.91	1954.03	1028.92	1028.91	1997.57
1195.54	291.146	2000	1028.11	1082.63	1028.11	1976.3	1028.13	1028.11	2030.83
1195.59	291.096	2063.33	1027.26	1095.17	1027.27	1995.66	1027.29	1027.26	2063.58
1195.64	291.046	2146.67	1026.35	1110.7	1026.35	2011.85	1026.38	1026.35	2096.23
1195.69	290.996	2210	1025.38	1129.33	1025.38	2024.69	1025.43	1025.38	2128.69
1195.74	290.946	2120	1024.48	1152.52	1024.49	2034.14	1024.55	1024.48	2162.24
1195.79	290.896	1990	1023.69	1180.11	1023.7	2040.11	1023.78	1023.69	2196.62
1195.84	290.846	2183.33	1022.75	1213.41	1022.75	2042.25	1022.87	1022.75	2233.04
1195.89	290.796	2146.67	1021.83	1252.76	1021.83	2040.71	1022	1021.83	2271.81
1195.94	290.746	2333.33	1020.75	1299.26	1020.75	2035.31	1020.99	1020.75	2314.05
1195.99	290.696	2300	1019.71	1354.05	1019.71	2026.29	1020.03	1019.71	2360.97
1196.04	290.646	2440	1018.54	1417.5	1018.55	2013.61	1018.99	1018.54	2413.02
1196.09	290.596	2440	1017.38	1491.96	1017.39	1997.52	1017.98	1017.38	2472.7
1196.14	290.546	2513.33	1016.16	1576.64	1016.16	1978.15	1016.96	1016.16	2539.45
1196.19	290.496	2630	1014.84	1675.03	1014.85	1955.66	1015.91	1014.84	2616.94
1196.24	290.446	2863.33	1013.32	1785.66	1013.34	1930.21	1014.77	1013.32	2704
1196.29	290.396	2876.67	1011.8	1911.5	1011.82	1902.24	1013.7	1011.8	2803.87
1196.34	290.346	2913.33	1010.24	2052.35	1010.27	1872.03	1012.77	1010.24	2916.69
1196.39	290.296	3040	1008.58	2209.02	1008.62	1839.81	1011.89	1008.58	3043.6
1196.44	290.246	3240	1006.75	2382.71	1006.81	1805.81	1011.09	1006.75	3186.16
1196.49	290.196	3313.33	1004.87	2571.96	1004.94	1770.45	1010.49	1004.87	3343.24
1196.54	290.146	3610	1002.74	2779.15	1002.84	1733.86	1010.02	1002.74	3517.67
1196.59	290.096	3733.33	1000.5	3000.78	1000.64	1696.48	1009.86	1000.5	3706.26
1196.64	290.046	3870	998.152	3238.49	998.338	1658.59	1010.17	998.152	3911.13
1196.69	289.996	4156.67	995.568	3488.54	995.815	1620.32	1010.86	995.568	4128.83
1196.74	289.946	4360	992.814	3749.82	993.141	1582.01	1012.24	992.814	4358.76
1196.79	289.896	4656.67	989.816	4019.21	990.247	1543.81	1014.29	989.816	4598.11
1196.84	289.846	4860	986.649	4293.19	987.217	1506.03	1017.42	986.649	4843.91
1196.89	289.796	4853.33	983.485	4568.15	984.229	1469.02	1021.89	983.485	5092.83
1196.94	289.746	5366.67	979.898	4839.48	980.867	1432.51	1027.68	979.898	5340.85
1196.99	289.696	5463.33	976.23	5101.1	977.49	1396.98	1035.28	976.229	5582.17
1197.04	289.646	5800	972.282	5349.77	973.921	1362.35	1045	972.281	5814.19
1197.09	289.596	6103.33	968.084	5577.7	970.199	1328.73	1057.06	968.082	6029.44
1197.14	289.546	6300	963.721	5781.72	966.436	1296.29	1072.15	963.719	6225.44
1197.19	289.496	6500	959.191	5955.87	962.679	1265.06	1090.52	959.189	6396.57
1197.24	289.446	6403.33	954.736	6095.18	959.202	1235.33	1113.1	954.734	6538.61
1197.29	289.396	6696.67	950.038	6198.47	955.721	1206.8	1139.89	950.035	6650.77
1197.34	289.346	6576.67	945.435	6257.69	952.627	1179.8	1171.91	945.43	6725.74
1197.39	289.296	6716.67	940.714	6278.14	949.829	1154.1	1209.36	940.707	6769.31
1197.44	289.246	6770	935.946	6251.13	947.445	1129.76	1252.93	935.937	6773.46
1197.49	289.196	6840	931.117	6184.37	945.541	1106.73	1303.06	931.106	6746.4
1197.54	289.146	6793.33	926.323	6075.18	944.321	1085.07	1360.29	926.308	6685.95
1197.59	289.096	6763.33	921.55	5928.29	944.051	1064.71	1425.05	921.532	6597.52
1197.64	289.046	6546.67	916.952	5747.91	944.925	1045.75	1497.62	916.929	6485.44
1197.69	288.996	6350	912.513	5536.29	947.104	1028.11	1578.35	912.482	6352.44
1197.74	288.946	6230	908.171	5301.77	950.766	1011.69	1666.85	908.131	6206.72
1197.79	288.896	5920	904.081	5045.78	956.55	996.56	1763.4	904.03	6050.25
1197.84	288.846	5736.67	900.14	4777.09	964.427	982.567	1867.01	900.075	5890.93
1197.89	288.796	5743.33	896.195	4498.82	974.561	969.489	1977.22	896.111	5731.84
1197.94	288.746	5620	892.353	4216.91	987.569	957.37	2092.66	892.246	5577.88
1197.99	288.696	5426.67	888.671	3935.81	1004.23	946.206	2212.45	888.535	5433.23
1198.04	288.646	5096.67	885.264	3659.67	1024.81	936.049	2334.73	885.091	5300.16
1198.09	288.596	5096.67	881.864	3391.3	1049.55	926.571	2457.45	881.645	5180.16
1198.14	288.546	5143.33	878.434	3134.61	1079.4	917.679	2578.39	878.157	5075.89
1198.19	288.496	5013.33	875.123	2890.02	1115.43	909.465	2694.97	874.773	4985.92
1198.24	288.446	5036.67	871.807	2661.88	1157.77	901.767	2805.11	871.368	4912.87
1198.29	288.396	4823.33	868.685	2448.59	1207.38	894.718	2905.38	868.134	4852.22
1198.34	288.346	4916.67	865.51	2252.63	1265.73	888.02	2994.38	864.821	4806.99
1198.39	288.296	4740	862.51	2073.19	1333.95	881.851	3068.03	861.649	4772.93
1198.44	288.246	4866.67	859.443	1910.09	1412.16	875.927	3126.34	858.372	4750.47
1198.49	288.196	4936.67	856.364	1763.63	1501.43	870.257	3164.79	855.034	4736.34
1198.54	288.146	4716.67	853.52	1631.76	1604.66	865.046	3185.61	851.874	4733.09
1198.59	288.096	4593.33	850.845	1515.92	1722.16	860.185	3184.47	848.813	4738.34
1198.64	288.046	4776.67	848.102	1412.26	1854.17	855.397	3164.84	845.598	4752.37
1198.69	287.996	4633.33	845.576	1322.3	2002	850.924	3123.57	842.499	4774.38
1198.74	287.946	4716.67	843.099	1243.02	2169.09	846.557	3065.51	839.328	4809.96
1198.79	287.896	4763.33	840.727	1174.31	2354.55	842.306	2988.45	836.117	4855.88
1198.84	287.846	4863.33	838.443	1114.78	2558.74	838.109	2897.89	832.821	4916.67
1198.89	287.796	4863.33	836.361	1063.21	2782.43	834.031	2793.24	829.523	4991.18
1198.94	287.746	5220	834.227	1019.05	3029.3	829.766	2679.16	825.93	5087.79
1198.99	287.696	5210	832.384	980.686	3296.56	825.599	2556.8	822.343	5202.66
1199.04	287.646	5460	830.687	948.288	3583.91	821.306	2429.74	818.547	5339.73
1199.09	287.596	5563.33	829.304	920.116	3891.55	816.997	2299.89	814.665	5499.2
1199.14	287.546	5770	828.218	896.114	4220.86	812.577	2169.69	810.61	5685.02
1199.19	287.496	5903.33	827.566	875.356	4567.7	808.098	2041.37	806.442	5894.32
1199.24	287.446	6116.67	827.374	857.379	4930.3	803.487	1916.16	802.096	6126.32
1199.29	287.396	6460	827.636	841.659	5306.9	798.632	1796.05	797.466	6381.01
1199.34	287.346	6820	828.455	827.604	5695.04	793.513	1681.34	792.538	6655.79
1199.39	287.296	6976.67	830.127	815.286	6089.93	788.291	1573.89	787.477	6947.62
1199.44	287.246	7140	832.795	804.125	6487.79	782.957	1473.35	782.279	7251.9
1199.49	287.196	7406.67	836.539	794.029	6883.84	777.421	1380.83	776.858	7565.22
1199.54	287.146	7546.67	841.649	784.7	7272.36	771.785	1295.65	771.318	7880.87
1199.59	287.096	8296.67	847.829	775.562	7648.01	765.546	1218.02	765.159	8194.33
1199.64	287.046	8650	855.635	766.752	8005.88	759.027	1147.31	758.707	8499.78
1199.69	286.996	8710	865.557	758.384	8338.11	752.464	1084.03	752.2	8789.74
1199.74	286.946	9060	877.637	750.148	8638.65	745.619	1026.98	745.402	9057.42
1199.79	286.896	9213.33	892.34	742.078	8904.4	738.65	976.262	738.472	9299.84
1199.84	286.846	9396.67	909.971	734.134	9130.68	731.533	930.996	731.387	9511.76
1199.89	286.796	9673.33	930.814	726.138	9307.53	724.189	890.828	724.069	9683.22
1199.94	286.746	10000	955.216	718.038	9434.11	716.576	854.995	716.478	9813.02
1199.99	286.696	9993.33	983.936	710.053	9510.42	708.966	823.387	708.887	9901.21
1200.04	286.646	9980	1017.53	702.169	9534.86	701.365	795.434	701.3	9946.15
1200.09	286.596	10006.7	1056.3	694.33	9499.09	693.738	770.688	693.685	9939.4
1200.14	286.546	10010	1100.76	686.536	9410.09	686.104	748.731	686.061	9887.98
1200.19	286.496	9596.67	1151.78	679.119	9271.06	678.804	729.505	678.769	9795.19
1200.24	286.446	9783.33	1209.4	671.573	9083.94	671.346	712.202	671.319	9663.19
1200.29	286.396	9520	1274.55	664.264	8845.35	664.1	696.836	664.078	9488.79
1200.34	286.346	9200	1347.82	657.227	8567.51	657.11	683.23	657.092	9284.53
1200.39	286.296	9063.33	1429.64	650.311	8254.91	650.228	670.943	650.213	9055.18
1200.44	286.246	8693.33	1520.74	643.701	7912.18	643.643	660.011	643.631	8805.75
1200.49	286.196	8780	1621.3	637.023	7542.15	636.982	649.831	636.973	8539.39
1200.54	286.146	8200	1732.36	630.819	7154.88	630.791	640.846	630.784	8266.56
1200.59	286.096	8053.33	1854.05	624.735	6755.26	624.716	632.527	624.71	7992.45
1200.64	286.046	7673.33	1986.97	618.959	6348.44	618.946	625.001	618.942	7722.55
1200.69	285.996	7360	2131.44	613.438	5939.79	613.429	618.084	613.425	7462.48
1200.74	285.946	7020	2287.74	608.191	5534.34	608.185	611.759	608.183	7217.48
1200.79	285.896	6943.33	2455.83	603.004	5135.69	603.001	605.72	602.998	6991.25
1200.84	285.846	6730	2635.89	597.989	4748.26	597.986	600.054	597.984	6788.24
1200.89	285.796	6603.33	2827.75	593.073	4375.65	593.071	594.629	593.07	6611.9
1200.94	285.746	6426.67	3031.24	588.298	4019.04	588.297	589.47	588.296	6463.16
1200.99	285.696	6316.67	3246.24	583.61	3680.1	583.609	584.484	583.608	6343.61
1201.04	285.646	6183.33	3471.92	579.027	3362.07	579.027	579.679	579.026	6255.62
1201.09	285.596	6300	3707.11	574.345	3065.25	574.345	574.826	574.344	6198.5
1201.14	285.546	6283.33	3950.9	569.673	2788.73	569.673	570.028	569.672	6170.31
1201.19	285.496	6340	4201.95	564.951	2532.52	564.951	565.21	564.95	6169.78
1201.24	285.446	6363.33	4458.82	560.206	2298.84	560.206	560.396	560.205	6197.65
1201.29	285.396	6163.33	4719.98	555.62	2085.83	555.62	555.757	555.62	6250.34
1201.34	285.346	6320	4983.21	550.903	1891.53	550.903	551.003	550.903	6323.94
1201.39	285.296	6560	5246.27	545.986	1715.05	545.986	546.057	545.986	6415.41
1201.44	285.246	6450	5507.14	541.154	1558.09	541.154	541.205	541.154	6524.13
1201.49	285.196	6473.33	5763.2	536.3	1417.27	536.3	536.336	536.3	6644.21
1201.54	285.146	6856.67	6011.53	531.127	1290.83	531.127	531.153	531.127	6771.26
1201.59	285.096	7056.67	6249.55	525.787	1177.84	525.787	525.805	525.787	6901.62
1201.64	285.046	7166.67	6474.59	520.353	1079.23	520.353	520.366	520.353	7033.49
1201.69	284.996	7206.67	6683.97	514.881	991.747	514.881	514.89	514.881	7160.84
1201.74	284.946	7416.67	6874.85	509.233	914.229	509.233	509.239	509.233	7279.85
1201.79	284.896	7186.67	7045.06	503.769	846.267	503.769	503.773	503.769	7387.56
1201.84	284.846	7426.67	7191.86	498.104	787.389	498.104	498.107	498.104	7481.15
1201.89	284.796	7586.67	7313.2	492.303	735.517	492.303	492.305	492.303	7556.41
1201.94	284.746	7890	7407	486.249	689.746	486.249	486.25	486.249	7610.5
1201.99	284.696	7626.67	7471.23	480.406	650.058	480.406	480.407	480.406	7640.88
1202.04	284.646	7466.67	7505.89	474.689	615.936	474.689	474.689	474.689	7647.14
1202.09	284.596	7253.33	7510.46	469.142	586.178	469.142	469.142	469.142	7627.5
1202.14	284.546	7290	7484.6	463.56	560.049	463.56	463.56	463.56	7581.09
1202.19	284.496	7310	7428.62	457.957	537.287	457.957	457.957	457.957	7507.95
1202.24	284.446	7420	7343.21	452.26	517.373	452.26	452.26	452.26	7408.32
1202.29	284.396	7396.67	7229.62	446.577	499.755	446.577	446.577	446.577	7282.8
1202.34	284.346	7186.67	7089.57	441.061	484.262	441.061	441.061	441.061	7132.77
1202.39	284.296	6846.67	6925.05	435.819	470.858	435.819	435.82	435.819	6960.08
1202.44	284.246	6786.67	6737.99	430.622	458.976	430.622	430.622	430.622	6766.34
1202.49	284.196	6440	6531.05	425.705	448.528	425.705	425.705	425.705	6553.87
1202.54	284.146	6230	6306.7	420.955	439.225	420.955	420.955	420.955	6324.97
1202.59	284.096	6103.33	6067.57	416.305	430.926	416.305	416.305	416.305	6082.19
1202.64	284.046	6043.33	5816.36	411.7	423.364	411.7	411.7	411.7	5828.02
1202.69	283.996	5576.67	5556.15	407.473	416.728	407.473	407.473	407.473	5565.41
1202.74	283.946	5566.67	5289.28	403.251	410.55	403.251	403.251	403.251	5296.58
1202.79	283.896	5103.33	5018.7	399.405	405.17	399.405	399.405	399.405	5024.47
1202.84	283.846	4833.33	4746.73	395.777	400.31	395.777	395.777	395.777	4751.26
1202.89	283.796	4616.67	4475.6	392.323	395.867	392.323	392.323	392.323	4479.15
1202.94	283.746	4423.33	4207.51	389.024	391.778	389.024	389.024	389.024	4210.26
1202.99	283.696	4016.67	3944.6	386.055	388.203	386.055	386.055	386.055	3946.75
1203.04	283.646	3803.33	3688.29	383.259	384.924	383.259	383.259	383.259	3689.95
1203.09	283.596	3503.33	3440.02	380.706	381.988	380.706	380.706	380.706	3441.31
1203.14	283.546	3326.67	3200.88	378.295	379.278	378.295	378.295	378.295	3201.87
1203.19	283.496	3056.67	2971.89	376.103	376.859	376.103	376.103	376.103	2972.64
1203.24	283.446	2743.33	2753.8	374.166	374.743	374.166	374.166	374.166	2754.38
1203.29	283.396	2566.67	2547.06	372.372	372.81	372.372	372.372	372.372	2547.5
1203.34	283.346	2243.33	2352.13	370.841	371.172	370.841	370.841	370.841	2352.46
1203.39	283.296	2030	2169.11	369.483	369.734	369.483	369.483	369.483	2169.36
1203.44	283.246	1976.67	1997.92	368.168	368.357	368.168	368.168	368.168	1998.11
1203.49	283.196	1653.33	1838.68	367.116	367.257	367.116	367.116	367.116	1838.83
1203.54	283.146	1593.33	1690.99	366.112	366.218	366.112	366.112	366.112	1691.1
1203.59	283.096	1353.33	1554.69	365.305	365.383	365.305	365.305	365.305	1554.77
1203.64	283.046	1276.67	1429.27	364.559	364.617	364.559	364.559	364.559	1429.33
1203.69	282.996	1276.67	1314.24	363.812	363.855	363.812	363.812	363.812	1314.28
1203.74	282.946	1080	1209.27	363.226	363.258	363.226	363.226	363.226	1209.3
1203.79	282.896	1056.67	1113.7	362.659	362.682	362.659	362.659	362.659	1113.73
1203.84	282.846	993.333	1027.02	362.143	362.16	362.143	362.143	362.143	1027.04
1203.89	282.796	796.667	948.785	361.787	361.8	361.787	361.787	361.787	948.798
1203.94	282.746	750	878.606	361.47	361.478	361.47	361.47	361.47	878.615
1203.99	282.696	703.333	815.605	361.19	361.196	361.19	361.19	361.19	815.612
1204.04	282.646	540	759.302	361.043	361.048	361.043	361.043	361.043	759.306
1204.09	282.596	693.333	708.905	360.771	360.775	360.771	360.771	360.771	708.908
1204.14	282.546	560	664.137	360.608	360.611	360.608	360.608	360.608	664.14
1204.19	282.496	516.667	624.437	360.481	360.482	360.481	360.481	360.481	624.439
1204.24	282.446	583.333	589.251	360.298	360.3	360.298	360.298	360.298	589.252
1204.29	282.396	503.333	558.262	360.181	360.182	360.181	360.181	360.181	558.263
1204.34	282.346	553.333	530.956	360.023	360.024	360.023	360.023	360.023	530.956
1204.39	282.296	476.667	507.055	359.928	359.928	359.928	359.928	359.928	507.056
1204.44	282.246	463.333	486.157	359.843	359.843	359.843	359.843	359.843	486.158
1204.49	282.196	443.333	467.943	359.775	359.775	359.775	359.775	359.775	467.943
1204.54	282.146	453.333	452.09	359.698	359.698	359.698	359.698	359.698	452.09
1204.59	282.096	450	438.339	359.624	359.625	359.624	359.624	359.624	438.339
1204.64	282.046	496.667	426.403	359.512	359.512	359.512	359.512	359.512	426.403
1204.69	281.996	456.667	416.13	359.433	359.433	359.433	359.433	359.433	416.13
1204.74	281.946	433.333	407.305	359.372	359.372	359.372	359.372	359.372	407.306
1204.79	281.896	430	399.734	359.314	359.315	359.314	359.314	359.314	399.734
1204.84	281.846	416.667	393.264	359.268	359.268	359.268	359.268	359.268	393.264
1204.89	281.796	426.667	387.744	359.212	359.212	359.212	359.212	359.212	387.744
1204.94	281.746	423.333	383.066	359.16	359.16	359.16	359.16	359.16	383.066
1204.99	281.696	400	379.107	359.127	359.127	359.127	359.127	359.127	379.107
1205.04	281.646	360	375.784	359.126	359.126	359.126	359.126	359.126	375.784
1205.09	281.596	390	372.954	359.101	359.101	359.101	359.101	359.101	372.954
1205.14	281.546	426.667	370.537	359.045	359.045	359.045	359.045	359.045	370.537
1205.19	281.496	333.333	368.533	359.024	359.024	359.024	359.024	359.024	368.533
1205.24	281.446	350	366.865	359.017	359.017	359.017	359.017	359.017	366.865
1205.29	281.396	410	365.436	358.975	358.975	358.975	358.975	358.975	365.436
1205.34	281.346	373.333	364.269	358.963	358.963	358.963	358.963	358.963	364.269
1205.39	281.296	390	363.283	358.938	358.938	358.938	358.938	358.938	363.283
1205.44	281.246	353.333	362.483	358.933	358.933	358.933	358.933	358.933	362.483
1205.49	281.196	326.667	361.8	358.907	358.907	358.907	358.907	358.907	361.8
1205.54	281.146	373.333	361.246	358.895	358.895	358.895	358.895	358.895	361.246
1205.59	281.096	366.667	360.795	358.889	358.889	358.889	358.889	358.889	360.795
1205.64	281.046	336.667	338.208	336.667	336.667	336.667	336.667	336.667	338.208
1205.69	280.996	416.667	417.909	416.667	416.667	416.667	416.667	416.667	417.909
1205.74	280.946	376.667	377.666	376.667	376.667	376.667	376.667	376.667	377.666
1205.79	280.896	363.333	364.135	363.333	363.333	363.333	363.333	363.333	364.135
1205.84	280.846	336.667	337.308	336.667	336.667	336.667	336.667	336.667	337.308
1205.89	280.796	346.667	347.179	346.667	346.667	346.667	346.667	346.667	347.179
1205.94	280.746	380	380.409	380	380	380	380	380	380.409
1205.99	280.696	410	410.325	410	410	410	410	410	410.325
1206.04	280.646	393.333	393.591	393.333	393.333	393.333	393.333	393.333	393.591
1206.09	280.596	330	330.204	330	330	330	330	330	330.204
1206.14	280.546	346.667	346.828	346.667	346.667	346.667	346.667	346.667	346.828
1206.19	280.496	376.667	376.794	376.667	376.667	376.667	376.667	376.667	376.794
1206.24	280.446	370	370.1	370	370	370	370	370	370.1
1206.29	280.396	326.667	326.745	326.667	326.667	326.667	326.667	326.667	326.745
1206.34	280.346	426.667	426.728	426.667	426.667	426.667	426.667	426.667	426.728
1206.39	280.296	273.333	273.381	273.333	273.333	273.333	273.333	273.333	273.381
1206.44	280.246	273.333	273.37	273.333	273.333	273.333	273.333	273.333	273.37
1206.49	280.196	336.667	336.695	336.667	336.667	336.667	336.667	336.667	336.695
1206.54	280.146	340	340.022	340	340	340	340	340	340.022
1206.59	280.096	363.333	363.35	363.333	363.333	363.333	363.333	363.333	363.35
1206.64	280.046	390	390.013	390	390	390	390	390	390.013
1206.69	279.996	376.667	376.677	376.667	376.667	376.667	376.667	376.667	376.677
1206.74	279.946	343.333	343.341	343.333	343.333	343.333	343.333	343.333	343.341
1206.79	279.896	383.333	383.339	383.333	383.333	383.333	383.333	383.333	383.339
1206.84	279.846	350	350.004	350	350	350	350	350	350.004
1206.89	279.796	333.333	333.337	333.333	333.333	333.333	333.333	333.333	333.337
1206.94	279.746	360	360.003	360	360	360	360	360	360.003
1206.99	279.696	360	360.002	360	360	360	360	360	360.002
1207.04	279.646	303.333	303.335	303.333	303.333	303.333	303.333	303.333	303.335
1207.09	279.596	290	290.001	290	290	290	290	290	290.001
1207.14	279.546	356.667	356.667	356.667	356.667	356.667	356.667	356.667	356.667
1207.19	279.496	333.333	333.334	333.333	333.333	333.333	333.333	333.333	333.334
1207.24	279.446	323.333	323.334	323.333	323.333	323.333	323.333	323.333	323.334
1207.29	279.396	340	340	340	340	340	340	340	340
1207.34	279.346	380	380	380	380	380	380	380	380
1207.39	279.296	366.667	366.667	366.667	366.667	366.667	366.667	366.667	366.667
1207.44	279.246	330	330	330	330	330	330	330	330
1207.49	279.196	346.667	346.667	346.667	346.667	346.667	346.667	346.667	346.667
1207.54	279.146	350	350	350	350	350	350	350	350
1207.59	279.096	353.333	353.333	353.333	353.333	353.333	353.333	353.333	353.333
1207.64	279.046	376.667	376.667	376.667	376.667	376.667	376.667	376.667	376.667
1207.69	278.996	320	320	320	320	320	320	320	320
1207.74	278.946	283.333	283.333	283.333	283.333	283.333	283.333	283.333	283.333
1207.79	278.896	436.667	436.667	436.667	436.667	436.667	436.667	436.667	436.667
1207.84	278.846	363.333	363.333	363.333	363.333	363.333	363.333	363.333	363.333
1207.89	278.796	323.333	323.333	323.333	323.333	323.333	323.333	323.333	323.333
1207.94	278.746	343.333	343.333	343.333	343.333	343.333	343.333	343.333	343.333
1207.99	278.696	290	290	290	290	290	290	290	290
1208.04	278.646	413.333	413.333	413.333	413.333	413.333	413.333	413.333	413.333
1208.09	278.596	333.333	333.333	333.333	333.333	333.333	333.333	333.333	333.333
1208.14	278.546	353.333	353.333	353.333	353.333	353.333	353.333	353.333	353.333
1208.19	278.496	363.333	363.333	363.333	363.333	363.333	363.333	363.333	363.333
1208.24	278.446	353.333	353.333	353.333	353.333	353.333	353.333	353.333	353.333
1208.29	278.396	403.333	403.333	403.333	403.333	403.333	403.333	403.333	403.333
1208.34	278.346	363.333	363.333	363.333	363.333	363.333	363.333	363.333	363.333
1208.39	278.296	300	300	300	300	300	300	300	300
1208.44	278.246	343.333	343.333	343.333	343.333	343.333	343.333	343.333	343.333
1208.49	278.196	420	420	420	420	420	420	420	420
1208.54	278.146	333.333	333.333	333.333	333.333	333.333	333.333	333.333	333.333
1208.59	278.096	356.667	356.667	356.667	356.667	356.667	356.667	356.667	356.667
1208.64	278.046	373.333	373.333	373.333	373.333	373.333	373.333	373.333	373.333
1208.69	277.996	346.667	346.667	346.667	346.667	346.667	346.667	346.667	346.667
1208.74	277.946	366.667	366.667	366.667	366.667	366.667	366.667	366.667	366.667
1208.79	277.896	386.667	386.667	386.667	386.667	386.667	386.667	386.667	386.667
1208.84	277.846	323.333	323.333	323.333	323.333	323.333	323.333	323.333	323.333
1208.89	277.796	323.333	323.333	323.333	323.333	323.333	323.333	323.333	323.333
1208.94	277.746	316.667	316.667	316.667	316.667	316.667	316.667	316.667	316.667
1208.99	277.696	330	330	330	330	330	330	330	330
1209.04	277.646	290	290	290	290	290	290	290	290
1209.09	277.596	343.333	343.333	343.333	343.333	343.333	343.333	343.333	343.333
1209.14	277.546	363.333	363.333	363.333	363.333	363.333	363.333	363.333	363.333
1209.19	277.496	366.667	366.667	366.667	366.667	366.667	366.667	366.667	366.667
1209.24	277.446	346.667	346.667	346.667	346.667	346.667	346.667	346.667	346.667
1209.29	277.396	330	330	330	330	330	330	330	330
1209.34	277.346	370	370	370	370	370	370	370	370
1209.39	277.296	353.333	353.333	353.333	353.333	353.333	353.333	353.333	353.333
1209.44	277.246	343.333	343.333	343.333	343.333	343.333	343.333	343.333	343.333
1209.49	277.196	360	360	360	360	360	360	360	360
1209.54	277.146	343.333	343.333	343.333	343.333	343.333	343.333	343.333	343.333
1209.59	277.096	333.333	333.333	333.333	333.333	333.333	333.333	333.333	333.333
1209.64	277.046	366.667	366.667	366.667	366.667	366.667	366.667	366.667	366.667
1209.69	276.996	343.333	343.333	343.333	343.333	343.333	343.333	343.333	343.333
1209.74	276.946	316.667	316.667	316.667	316.667	316.667	316.667	316.667	316.667
1209.79	276.896	310	310	310	310	310	310	310	310
1209.84	276.846	293.333	293.333	293.333	293.333	293.333	293.333	293.333	293.333
1209.89	276.796	316.667	316.667	316.667	316.667	316.667	316.667	316.667	316.667
1209.94	276.746	356.667	356.667	356.667	356.667	356.667	356.667	356.667	356.667
1209.99	276.696	376.667	376.667	376.667	376.667	376.667	376.667	376.667	376.667
1210.04	276.646	383.333	383.333	383.333	383.333	383.333	383.333	383.333	383.333
1210.09	276.596	320	320	320	320	320	320	320	320
1210.14	276.546	343.333	343.333	343.333	343.333	343.333	343.333	343.333	343.333
1210.19	276.496	326.667	326.667	326.667	326.667	326.667	326.667	326.667	326.667
1210.24	276.446	326.667	326.667	326.667	326.667	326.667	326.667	326.667	326.667
1210.29	276.396	270	270	270	270	270	270	270	270
1210.34	276.346	320	320	320	320	320	320	320	320
1210.39	276.296	343.333	343.333	343.333	343.333	343.333	343.333	343.333	343.333
1210.44	276.246	326.667	326.667	326.667	326.667	326.667	326.667	326.667	326.667
1210.49	276.196	366.667	366.667	366.667	366.667	366.667	366.667	366.667	366.667
1210.54	276.146	360	360	360	360	360	360	360	360
1210.59	276.096	350	350	350	350	350	350	350	350
1210.64	276.046	336.667	336.667	336.667	336.667	336.667	336.667	336.667	336.667
1210.69	275.996	363.333	363.333	363.333	363.333	363.333	363.333	363.333	363.333
1210.74	275.946	340	340	340	340	340	340	340	340
1210.79	275.896	333.333	333.333	333.333	333.333	333.333	333.333	333.333	333.333
1210.84	275.846	343.333	343.333	343.333	343.333	343.333	343.333	343.333	343.333
1210.89	275.796	330	330	330	330	330	330	330	330
1210.94	275.746	306.667	306.667	306.667	306.667	306.667	306.667	306.667	306.667
1210.99	275.696	340	340	340	340	340	340	340	340
1211.04	275.646	333.333	333.333	333.333	333.333	333.333	333.333	333.333	333.333
1211.09	275.596	316.667	316.667	316.667	316.667	316.667	316.667	316.667	316.667
1211.14	275.546	300	300	300	300	300	300	300	300
1211.19	275.496	330	330	330	330	330	330	330	330
1211.24	275.446	293.333	293.333	293.333	293.333	293.333	293.333	293.333	293.333
1211.29	275.396	316.667	316.667	316.667	316.667	316.667	316.667	316.667	316.667
1211.34	275.346	310	310	310	310	310	310	310	310
1211.39	275.296	343.333	343.333	343.333	343.333	343.333	343.333	343.333	343.333
1211.44	275.246	356.667	356.667	356.667	356.667	356.667	356.667	356.667	356.667
1211.49	275.196	296.667	296.667	296.667	296.667	296.667	296.667	296.667	296.667
1211.54	275.146	293.333	293.333	293.333	293.333	293.333	293.333	293.333	293.333
1211.59	275.096	380	380	380	380	380	380	380	380