VAMAS Surface Chemical Analysis Standard Data Transfer Format 1988 May 4
Not Specified
Kratos Axis
Not Specified
/d=/data/20170705/2017006144/A1.dset
3
Casa Info Follows
0
SourceAnalyserAngle: Not Specified
MAP
REGULAR
4
2
32768
32768
1
Etch Time
s
0
0
0
0
4
wide/2
Not Specified
2017
7
4
10
44
32
0
25
Casa Info Follows
1
Calib M = 283.074 A = 284.6 BE ADD
8
annot text peak Data 1200.16 2067 RGB(0,0,0) Font(14,18,0,0,Times New Roman) Vertical
C 1s
annot text peak Data 1089.89 569 RGB(0,0,0) Font(14,18,0,0,Times New Roman) Vertical
N 1s
annot text peak Data 510.164 1921 RGB(0,0,0) Font(14,18,0,0,Times New Roman) Vertical
O KLL
annot text peak Data 954.164 3706 RGB(0,0,0) Font(14,18,0,0,Times New Roman) Vertical
O 1s
annot text peak Data 642 1329 RGB(0,0,0) Font(14,18,0,0,Times New Roman) Vertical
F KLL
annot text peak Data 799.164 4212 RGB(0,0,0) Font(14,18,0,0,Times New Roman) Vertical
F 1s
annot text peak Data 1255.16 114 RGB(0,0,0) Font(14,18,0,0,Times New Roman) Vertical
S 2s
annot text peak Data 1318.16 159 RGB(0,0,0) Font(14,18,0,0,Times New Roman) Vertical
S 2p
0
0
   XPS     Spectrum    Lens Mode:Hybrid   Resolution:Pass energy 80    Iris(Aper):slot(Slot)
   Acqn. Time(s): 110        Sweeps: 1        Anode:Mono(Al (Mono))(150 W)   Step(meV): 1000.0
   Dwell Time(ms): 100        Charge Neutraliser :On   Acquired On :17/07/04 10:44:32
XPS
59
-3
0
Mono(Al (Mono))
1486.69
150
1e+037
1e+037
6000
6000
1e+037
1e+037
FAT
80
1e+037
-4.45
0
1e+037
1e+037
1e+037
1e+037
Wide
None
-1
Kinetic Energy
eV
386.69
1
2
Intensity
d
Transmission
d
pulse counting
0.1
1
0
1e+037
1e+037
1e+037
0
2202
5
4212
8.48115
10.2364
1566
10.2364
1549
10.2286
1551
10.2207
1505
10.2129
1540
10.2051
1571
10.1972
1525
10.1894
1579
10.1815
1563
10.1737
1541
10.1658
1587
10.158
1562
10.1502
1575
10.1423
1603
10.1345
1613
10.1266
1581
10.1188
1488
10.1109
1507
10.1031
1554
10.0953
1558
10.0874
1526
10.0796
1505
10.0717
1517
10.0639
1531
10.056
1559
10.0492
1520
10.0427
1517
10.0362
1519
10.0296
1581
10.0231
1584
10.0166
1607
10.0101
1592
10.0035
1534
9.997
1585
9.99047
1638
9.98395
1605
9.97742
1582
9.97089
1613
9.96436
1600
9.95784
1587
9.95131
1559
9.94478
1595
9.93825
1557
9.93173
1639
9.9252
1621
9.91867
1659
9.91215
1628
9.90562
1600
9.89909
1574
9.89256
1528
9.88604
1566
9.87951
1611
9.87298
1583
9.86645
1634
9.85993
1612
9.8534
1598
9.84687
1587
9.84034
1565
9.83382
1590
9.82729
1574
9.82076
1593
9.81423
1562
9.80771
1619
9.80118
1651
9.79465
1694
9.78813
1675
9.7816
1628
9.77507
1652
9.76854
1683
9.76202
1655
9.75549
1642
9.74896
1569
9.74243
1650
9.73591
1628
9.72938
1611
9.72439
1669
9.71983
1701
9.71527
1693
9.71071
1682
9.70615
1679
9.7016
1670
9.69704
1715
9.69248
1707
9.68792
1675
9.68336
1647
9.67881
1648
9.67425
1698
9.66969
1667
9.66513
1713
9.66057
1736
9.65602
1726
9.65146
1728
9.6469
1688
9.64234
1749
9.63778
1710
9.63322
1751
9.62867
1745
9.62411
1760
9.61955
1742
9.61499
1770
9.61043
1820
9.60588
1775
9.60132
1783
9.59676
1815
9.5922
1803
9.58764
1692
9.58309
1672
9.57853
1697
9.57397
1690
9.56941
1630
9.56485
1653
9.56029
1677
9.55574
1655
9.55118
1626
9.54662
1613
9.54206
1615
9.5375
1636
9.53294
1644
9.52839
1658
9.52383
1665
9.51927
1755
9.51471
1823
9.51015
1800
9.5056
1860
9.50104
1888
9.4966
1921
9.49219
1897
9.48778
1874
9.48337
1851
9.47896
1740
9.47455
1719
9.47014
1699
9.46573
1630
9.46132
1571
9.45691
1491
9.45251
1440
9.4481
1379
9.44369
1339
9.43928
1283
9.43487
1282
9.43046
1263
9.42605
1273
9.42164
1273
9.41723
1252
9.41282
1316
9.40841
1260
9.40401
1245
9.3996
1258
9.39519
1245
9.39078
1297
9.38637
1333
9.38196
1265
9.37755
1209
9.37314
1267
9.36873
1244
9.36432
1235
9.35992
1258
9.35551
1270
9.3511
1243
9.34669
1299
9.34228
1293
9.33787
1278
9.33346
1297
9.32905
1286
9.32464
1283
9.32023
1272
9.31583
1285
9.31142
1251
9.30701
1274
9.3026
1254
9.29819
1295
9.29378
1257
9.28937
1238
9.28496
1261
9.28055
1372
9.27708
1277
9.27386
1333
9.27065
1298
9.26744
1325
9.26422
1235
9.26101
1294
9.2578
1322
9.25458
1282
9.25137
1266
9.24816
1311
9.24494
1295
9.24173
1322
9.23852
1287
9.2353
1325
9.23209
1354
9.22888
1289
9.22566
1346
9.22245
1344
9.21924
1347
9.21602
1320
9.21281
1360
9.2096
1367
9.20638
1322
9.20317
1327
9.19996
1353
9.19674
1356
9.19353
1379
9.19032
1325
9.1871
1355
9.18389
1357
9.18068
1335
9.17746
1324
9.17425
1356
9.17104
1407
9.16782
1351
9.16461
1335
9.1614
1333
9.15818
1372
9.15497
1317
9.15176
1346
9.14854
1359
9.14533
1378
9.14212
1380
9.1389
1383
9.13569
1349
9.13247
1379
9.12926
1426
9.12605
1417
9.12284
1405
9.11962
1404
9.11731
1419
9.11525
1398
9.11319
1394
9.11112
1426
9.10906
1405
9.107
1396
9.10494
1365
9.10288
1426
9.10082
1384
9.09876
1348
9.0967
1427
9.09464
1489
9.09258
1452
9.09052
1501
9.08845
1563
9.08639
1546
9.08433
1588
9.08227
1574
9.08021
1540
9.07815
1569
9.07609
1512
9.07403
1492
9.07197
1450
9.06991
1450
9.06785
1470
9.06578
1407
9.06372
1480
9.06166
1369
9.0596
1424
9.05754
1381
9.05548
1372
9.05342
1329
9.05136
1346
9.0493
1366
9.04724
1398
9.04518
1419
9.04311
1405
9.04105
1446
9.03899
1488
9.03693
1524
9.03487
1627
9.03281
1780
9.03075
1882
9.02869
1959
9.02663
1925
9.02457
1881
9.0225
1732
9.02044
1691
9.01838
1600
9.01632
1530
9.01335
1521
9.01012
1380
9.0069
1367
9.00367
1328
9.00044
1272
8.99721
1233
8.99398
1212
8.99076
1204
8.98753
1180
8.9843
1173
8.98107
1131
8.97784
1125
8.97462
1173
8.97139
1176
8.96816
1117
8.96493
1127
8.9617
1131
8.95848
1107
8.95525
1206
8.95202
1141
8.94879
1120
8.94556
1147
8.94234
1147
8.93911
1129
8.93588
1193
8.93265
1154
8.92942
1114
8.9262
1201
8.92297
1164
8.91974
1137
8.91651
1180
8.91328
1166
8.91006
1182
8.90683
1132
8.9036
1157
8.90037
1194
8.89714
1162
8.89392
1202
8.89069
1181
8.88746
1185
8.88483
1139
8.88236
1208
8.8799
1178
8.87743
1185
8.87497
1163
8.87251
1148
8.87004
1236
8.86758
1249
8.86511
1184
8.86265
1141
8.86019
1183
8.85772
1175
8.85526
1166
8.85279
1216
8.85033
1172
8.84786
1192
8.8454
1193
8.84294
1206
8.84047
1201
8.83801
1151
8.83554
1209
8.83308
1210
8.83062
1217
8.82815
1211
8.82569
1212
8.82322
1206
8.82076
1224
8.81829
1179
8.81583
1278
8.81337
1225
8.8109
1197
8.80844
1207
8.80597
1222
8.80351
1237
8.80104
1198
8.79858
1229
8.79612
1253
8.79365
1256
8.79119
1233
8.78872
1210
8.78626
1272
8.7838
1224
8.78133
1228
8.77887
1224
8.7764
1184
8.77394
1259
8.77147
1264
8.76901
1216
8.76655
1183
8.76408
1220
8.76162
1209
8.75915
1236
8.75669
1250
8.75422
1199
8.75176
1197
8.7493
1213
8.74683
1225
8.74437
1235
8.7419
1253
8.73944
1244
8.73885
1232
8.73879
1256
8.73873
1274
8.73867
1224
8.73861
1255
8.73855
1297
8.73849
1277
8.73843
1298
8.73837
1304
8.73831
1335
8.73825
1303
8.73819
1297
8.73813
1308
8.73806
1306
8.738
1272
8.73794
1247
8.73788
1282
8.73782
1252
8.73776
1308
8.7377
1234
8.73764
1242
8.73758
1199
8.73752
1171
8.73746
1168
8.7374
1150
8.73734
1143
8.73728
1124
8.73722
1086
8.73716
1127
8.7371
1105
8.73704
1080
8.73698
1068
8.73692
1071
8.73686
1018
8.7368
1108
8.73674
1223
8.73668
1524
8.73662
2333
8.73655
3733
8.73649
4212
8.73643
2385
8.73637
1292
8.73631
1064
8.73625
1021
8.73619
972
8.73613
931
8.73607
986
8.73601
935
8.73595
949
8.73589
982
8.73468
1005
8.73314
998
8.73161
974
8.73007
971
8.72854
953
8.727
988
8.72547
987
8.72393
988
8.7224
1018
8.72086
990
8.71933
1005
8.71779
984
8.71626
978
8.71472
977
8.71319
989
8.71165
980
8.71012
1003
8.70858
1023
8.70705
992
8.70551
1005
8.70398
1010
8.70244
987
8.70091
997
8.69937
978
8.69784
1017
8.6963
1015
8.69477
1059
8.69323
1053
8.6917
996
8.69016
973
8.68863
1038
8.68709
1044
8.68556
1001
8.68402
1001
8.68249
998
8.68095
985
8.67942
1018
8.67788
977
8.67635
990
8.67481
993
8.67328
1001
8.67174
1009
8.67021
1046
8.66867
1001
8.66714
1030
8.6656
986
8.66407
997
8.66253
1008
8.661
1044
8.65946
993
8.65793
1009
8.65639
1028
8.65486
1048
8.65332
1044
8.65179
1039
8.65025
1009
8.64872
1062
8.64718
1013
8.64565
1025
8.64411
1023
8.64417
1012
8.64468
989
8.64518
997
8.64569
991
8.6462
1014
8.6467
993
8.64721
1027
8.64772
1025
8.64822
981
8.64873
1011
8.64924
1054
8.64974
991
8.65025
1052
8.65075
1079
8.65126
1026
8.65177
1067
8.65228
1000
8.65278
1025
8.65329
981
8.65379
1013
8.6543
1004
8.65481
1020
8.65531
1017
8.65582
997
8.65633
1014
8.65683
1027
8.65734
1075
8.65785
960
8.65835
973
8.65886
1012
8.65937
1014
8.65987
959
8.66038
1005
8.66089
1011
8.66139
1011
8.6619
1011
8.66241
1055
8.66291
1027
8.66342
1008
8.66393
1030
8.66317
981
8.66206
1030
8.66095
996
8.65984
1075
8.65872
1057
8.65761
1002
8.6565
1042
8.65539
1035
8.65428
1003
8.65317
1039
8.65206
1049
8.65094
970
8.64983
1008
8.64872
1021
8.64761
1031
8.6465
1039
8.64539
1013
8.64428
1080
8.64317
1111
8.64205
1044
8.64094
1095
8.63983
1106
8.63872
1109
8.63761
1053
8.6365
998
8.63539
1022
8.63427
958
8.63316
950
8.63205
944
8.63094
875
8.62983
844
8.62872
815
8.62761
834
8.6265
764
8.62538
741
8.62427
691
8.62316
685
8.62205
676
8.62094
684
8.61983
643
8.61872
715
8.6176
893
8.61649
1295
8.61538
2424
8.61427
3706
8.61316
3556
8.61205
1961
8.61094
882
8.60983
560
8.60871
548
8.6076
525
8.60649
498
8.60538
480
8.60427
493
8.60316
497
8.60205
486
8.60093
496
8.59982
476
8.59871
536
8.5976
522
8.59692
507
8.59635
490
8.59579
490
8.59522
449
8.59466
465
8.5941
476
8.59353
479
8.59297
467
8.5924
473
8.59184
490
8.59128
512
8.59071
498
8.59015
504
8.58958
489
8.58902
481
8.58846
530
8.58789
501
8.58733
478
8.58676
495
8.5862
480
8.58564
542
8.58507
502
8.58451
512
8.58394
521
8.58338
504
8.58282
496
8.58225
506
8.58169
523
8.58112
524
8.58056
507
8.58
493
8.57943
524
8.57887
496
8.5783
481
8.57774
509
8.57718
481
8.57661
518
8.57605
500
8.57548
513
8.57492
501
8.57413
516
8.57328
544
8.57243
517
8.57158
505
8.57074
497
8.56989
539
8.56904
525
8.56819
535
8.56734
492
8.56649
459
8.56564
525
8.56479
540
8.56394
506
8.56309
518
8.56224
533
8.56139
500
8.56055
481
8.5597
524
8.55885
558
8.558
512
8.55715
502
8.5563
486
8.55545
476
8.5546
515
8.55375
509
8.5529
522
8.55205
492
8.5512
470
8.55035
524
8.54951
531
8.54866
522
8.54781
543
8.54696
497
8.54611
496
8.54526
519
8.54441
490
8.54356
516
8.54271
535
8.54186
482
8.54101
522
8.54016
542
8.53932
532
8.53847
518
8.53762
506
8.53677
498
8.53592
519
8.53507
577
8.53422
550
8.53337
519
8.53252
540
8.5335
569
8.535
555
8.5365
561
8.538
527
8.5395
523
8.541
510
8.5425
499
8.544
502
8.5455
502
8.547
551
8.5485
560
8.55
563
8.5515
531
8.553
510
8.5545
530
8.556
550
8.5575
540
8.55899
528
8.56049
537
8.56199
548
8.56349
563
8.56499
521
8.56649
524
8.56799
547
8.56949
608
8.57099
647
8.57249
588
8.57399
560
8.57549
543
8.57699
569
8.57849
551
8.57999
539
8.58149
538
8.58298
546
8.58448
517
8.58598
525
8.58748
548
8.58898
533
8.59048
541
8.59198
561
8.59135
544
8.59011
541
8.58887
521
8.58763
497
8.58639
522
8.58515
530
8.58392
526
8.58268
539
8.58144
524
8.5802
543
8.57896
551
8.57773
543
8.57649
563
8.57525
580
8.57401
575
8.57277
564
8.57154
552
8.5703
549
8.56906
549
8.56782
583
8.56658
544
8.56534
501
8.56411
569
8.56287
533
8.56163
528
8.56039
543
8.55915
567
8.55792
592
8.55668
597
8.55544
605
8.5542
581
8.55296
559
8.55173
537
8.55049
568
8.54925
557
8.54801
587
8.54677
588
8.54553
570
8.5443
573
8.54306
597
8.54182
582
8.54058
584
8.53934
599
8.53811
584
8.53687
571
8.53563
608
8.53439
555
8.53315
553
8.53191
557
8.53068
593
8.52944
554
8.5282
569
8.52696
553
8.52572
578
8.52449
582
8.52325
597
8.52201
574
8.52077
606
8.51953
598
8.5183
576
8.51706
559
8.51582
601
8.51458
590
8.51334
559
8.5121
592
8.51087
620
8.50963
599
8.50839
623
8.50715
615
8.50591
619
8.50468
648
8.50344
636
8.5022
631
8.50096
659
8.49972
677
8.49849
621
8.49725
616
8.49601
627
8.49477
603
8.49353
572
8.49229
582
8.49106
550
8.48982
550
8.48858
497
8.48734
484
8.4861
425
8.48487
447
8.48363
442
8.48239
357
8.48115
317
8.4832
315
8.48617
317
8.48914
268
8.49212
285
8.49509
332
8.49806
451
8.50104
702
8.50401
1244
8.50698
1570
8.50995
1561
8.51293
2067
8.5159
1913
8.51887
1615
8.52185
1182
8.52482
429
8.52779
116
8.53077
106
8.53374
102
8.53671
82
8.53969
99
8.54266
92
8.54563
77
8.5486
69
8.55158
88
8.55455
102
8.55752
96
8.5605
95
8.56347
104
8.56644
97
8.56942
86
8.57239
89
8.57536
79
8.57833
81
8.58131
85
8.58428
79
8.58725
87
8.59023
86
8.5932
84
8.59617
100
8.59915
89
8.60212
87
8.60509
76
8.60806
89
8.61104
77
8.61401
87
8.61698
85
8.61996
79
8.62293
86
8.6259
97
8.62888
76
8.63012
79
8.63087
87
8.63163
82
8.63238
83
8.63314
91
8.63389
83
8.63465
99
8.6354
104
8.63616
82
8.63691
82
8.63767
84
8.63842
93
8.63918
102
8.63993
87
8.64069
129
8.64144
114
8.64219
108
8.64295
87
8.6437
95
8.64446
74
8.64521
80
8.64597
86
8.64672
90
8.64748
87
8.64823
80
8.64899
75
8.64974
77
8.6505
88
8.65125
87
8.65201
78
8.65276
77
8.65352
76
8.65427
76
8.65503
79
8.65578
93
8.65654
76
8.65729
69
8.65804
76
8.6588
85
8.65955
89
8.66031
89
8.66106
90
8.66182
81
8.66257
86
8.66333
88
8.66408
83
8.66484
98
8.66559
97
8.66635
103
8.6671
77
8.66786
77
8.66861
77
8.66937
92
8.67012
96
8.67088
88
8.67163
92
8.67239
83
8.67314
85
8.6739
86
8.67465
84
8.6743
76
8.67363
81
8.67297
74
8.6723
89
8.67163
77
8.67097
82
8.6703
74
8.66964
74
8.66897
65
8.6683
71
8.66764
70
8.66697
64
8.66631
68
8.66564
71
8.66498
84
8.66431
71
8.66364
98
8.66298
129
8.66231
159
8.66165
141
8.66098
119
8.66032
81
8.65965
90
8.65898
75
8.65832
73
8.65765
69
8.65699
68
8.65632
60
8.65565
65
8.65499
77
8.65432
65
8.65366
79
8.65299
80
8.65233
99
8.65166
87
8.65099
99
8.65033
70
8.64966
56
8.649
71
8.64833
69
8.64767
64
8.647
60
8.64633
68
8.64567
60
8.645
92
8.64434
63
8.64367
70
8.643
61
8.64234
66
8.64167
74
8.64101
60
8.64034
74
8.63968
71
8.63901
87
8.63834
68
8.63768
69
8.6398
70
8.64272
70
8.64563
58
8.64854
54
8.65146
55
8.65437
65
8.65728
69
8.6602
69
8.66311
57
8.66602
73
8.66894
64
8.67185
83
8.67476
78
8.67768
89
8.68059
68
8.6835
68
8.68642
72
8.68933
85
8.69224
83
8.69516
67
8.69807
67
8.70098
59
8.7039
76
8.70681
69
8.70972
88
8.71264
80
8.71555
68
8.71846
81
8.72137
80
8.72429
80
8.7272
93
8.73011
76
8.73303
75
8.73594
65
8.73885
78
8.74177
82
8.74468
75
8.74759
73
8.75051
76
8.75342
88
8.75633
67
8.75925
73
8.76216
87
8.76507
68
8.76799
82
8.7709
90
8.77381
77
8.77673
84
8.77964
92
8.78255
80
8.78547
95
8.78838
72
8.79129
83
8.79421
69
8.79712
73
8.80003
86
8.80295
96
8.80586
81
8.80877
76
8.81169
79
8.8146
71
8.81751
74
8.82043
75
8.82334
79
8.82625
74
8.82916
83
8.83208
79
8.83499
78
8.8379
89
8.84082
80
8.84373
93
8.84664
99
8.84956
79
8.85247
94
8.85538
101
8.8583
81
8.86121
71
8.86412
69
8.86704
85
8.86995
84
8.87286
81
8.87578
77
8.87869
77
8.8816
83
8.88452
82
8.88743
79
8.89034
81
8.89326
81
8.89617
64
8.89908
73
8.902
65
8.90491
76
8.90782
70
8.91074
80
8.91365
95
8.91656
117
8.91948
132
8.92239
172
8.9253
172
8.92822
108
8.93113
93
8.93404
90
8.93695
102
8.93987
118
8.94051
97
8.94051
98
8.94051
129
8.94051
92
8.94051
67
8.94051
58
8.94051
55
8.94051
50
8.94051
65
8.94051
63
8.94051
87
8.94051
81
8.94051
64
8.94051
73
8.94051
64
8.94051
63
8.94051
64
8.94051
72
8.94051
65
8.94051
42
8.94051
52
8.94051
32
8.94051
33
8.94051
23
8.94051
15
8.94051
5
8.94051
F 1s/5
Not Specified
2017
7
4
12
37
14
0
9
Casa Info Follows
1
Calib M = 283.074 A = 284.6 BE ADD
0
0
0
   XPS     Spectrum    Lens Mode:Hybrid   Resolution:Pass energy 40    Iris(Aper):slot(Slot)
   Acqn. Time(s): 121        Sweeps: 2        Anode:Mono(Al (Mono))(150 W)   Step(meV): 50.0  
   Dwell Time(ms): 150        Charge Neutraliser :On   Acquired On :17/07/04 12:37:14
XPS
59
-3
0
Mono(Al (Mono))
1486.69
150
1e+037
1e+037
6000
6000
1e+037
1e+037
FAT
40
1e+037
-4.45
0
1e+037
1e+037
1e+037
1e+037
F
1s
-1
Kinetic Energy
eV
790.64
0.05
2
Intensity
d
Transmission
d
pulse counting
0.15
2
0
1e+037
1e+037
1e+037
0
806
1078
6241
3.41724
3.42712
1225
3.42712
1259
3.4271
1261
3.42707
1200
3.42705
1215
3.42702
1266
3.427
1267
3.42698
1241
3.42695
1180
3.42693
1229
3.4269
1208
3.42688
1240
3.42686
1242
3.42683
1228
3.42681
1247
3.42678
1231
3.42676
1260
3.42674
1232
3.42671
1234
3.42669
1256
3.42667
1316
3.42664
1218
3.42662
1241
3.42659
1210
3.42657
1217
3.42655
1197
3.42652
1202
3.4265
1203
3.42647
1245
3.42645
1250
3.42643
1213
3.4264
1232
3.42638
1205
3.42636
1160
3.42633
1168
3.42631
1153
3.42628
1206
3.42626
1215
3.42624
1208
3.42621
1224
3.42619
1191
3.42616
1250
3.42614
1230
3.42612
1137
3.42609
1248
3.42607
1229
3.42605
1224
3.42602
1227
3.426
1231
3.42597
1193
3.42595
1207
3.42593
1134
3.4259
1165
3.42588
1194
3.42585
1251
3.42583
1246
3.42581
1222
3.42578
1161
3.42576
1219
3.42573
1248
3.42571
1219
3.42569
1175
3.42566
1230
3.42564
1201
3.42562
1237
3.42559
1234
3.42557
1215
3.42554
1185
3.42552
1255
3.4255
1216
3.42547
1232
3.42545
1237
3.42542
1225
3.4254
1255
3.42538
1213
3.42535
1183
3.42533
1211
3.42531
1235
3.42528
1242
3.42526
1243
3.42523
1244
3.42521
1209
3.42519
1171
3.42516
1239
3.42514
1202
3.42511
1218
3.42509
1236
3.42507
1258
3.42504
1239
3.42502
1226
3.425
1201
3.42497
1179
3.42495
1244
3.42492
1261
3.4249
1241
3.42488
1300
3.42485
1280
3.42483
1227
3.4248
1227
3.42478
1210
3.42476
1277
3.42473
1277
3.42471
1266
3.42469
1278
3.42466
1359
3.42464
1294
3.42461
1296
3.42459
1290
3.42457
1277
3.42454
1312
3.42452
1307
3.42449
1303
3.42447
1296
3.42445
1345
3.42442
1274
3.4244
1316
3.42437
1302
3.42435
1370
3.42433
1272
3.4243
1328
3.42428
1361
3.42426
1427
3.42423
1394
3.42421
1409
3.42418
1428
3.42416
1402
3.42414
1421
3.42411
1442
3.42409
1446
3.42406
1449
3.42404
1439
3.42402
1470
3.42399
1553
3.42397
1538
3.42395
1628
3.42392
1620
3.4239
1616
3.42387
1607
3.42385
1671
3.42383
1657
3.4238
1738
3.42378
1674
3.42375
1782
3.42373
1773
3.42371
1838
3.42368
1916
3.42366
1930
3.42364
1907
3.42361
2008
3.42359
2014
3.42356
2130
3.42354
2123
3.42352
2211
3.42349
2272
3.42347
2301
3.42344
2339
3.42342
2398
3.4234
2343
3.42337
2536
3.42335
2625
3.42333
2663
3.4233
2739
3.42328
2799
3.42325
2897
3.42323
2981
3.42321
3044
3.42318
3229
3.42316
3386
3.42313
3472
3.42311
3628
3.42309
3743
3.42306
3894
3.42304
4021
3.42301
4100
3.42299
4375
3.42297
4497
3.42294
4666
3.42292
4805
3.4229
5017
3.42287
5141
3.42285
5264
3.42282
5302
3.4228
5622
3.42278
5672
3.42275
5742
3.42273
5980
3.4227
6121
3.42268
6117
3.42266
6189
3.42263
6174
3.42261
6154
3.42259
6241
3.42256
6211
3.42254
5991
3.42251
5964
3.42249
5877
3.42247
5861
3.42244
5580
3.42242
5463
3.42239
5370
3.42237
5141
3.42235
5056
3.42232
4790
3.4223
4662
3.42228
4292
3.42225
4151
3.42223
3949
3.4222
3801
3.42218
3606
3.42216
3422
3.42213
3184
3.42211
3013
3.42208
2783
3.42206
2725
3.42204
2591
3.42201
2456
3.42199
2379
3.42196
2254
3.42194
2095
3.42192
2050
3.42189
1906
3.42187
1862
3.42185
1856
3.42182
1752
3.4218
1778
3.42177
1703
3.42175
1571
3.42173
1574
3.4217
1559
3.42168
1534
3.42165
1460
3.42163
1430
3.42161
1372
3.42158
1395
3.42156
1455
3.42154
1373
3.42151
1316
3.42149
1324
3.42146
1337
3.42144
1298
3.42142
1320
3.42139
1317
3.42137
1319
3.42134
1262
3.42132
1267
3.4213
1307
3.42127
1298
3.42125
1248
3.42123
1238
3.4212
1249
3.42118
1227
3.42115
1270
3.42113
1203
3.42111
1217
3.42108
1238
3.42106
1224
3.42103
1199
3.42101
1176
3.42099
1190
3.42096
1189
3.42094
1200
3.42091
1206
3.42089
1257
3.42087
1231
3.42084
1240
3.42082
1254
3.4208
1198
3.42077
1221
3.42075
1214
3.42072
1202
3.4207
1202
3.42068
1164
3.42065
1217
3.42063
1188
3.4206
1173
3.42058
1253
3.42056
1194
3.42053
1152
3.42051
1175
3.42049
1200
3.42046
1172
3.42044
1165
3.42041
1161
3.42039
1183
3.42037
1219
3.42034
1134
3.42032
1166
3.42029
1143
3.42027
1136
3.42025
1146
3.42022
1143
3.4202
1132
3.42018
1119
3.42015
1221
3.42013
1152
3.4201
1183
3.42008
1155
3.42006
1171
3.42003
1114
3.42001
1167
3.41998
1201
3.41996
1136
3.41994
1183
3.41991
1141
3.41989
1177
3.41986
1148
3.41984
1182
3.41982
1178
3.41979
1172
3.41977
1182
3.41975
1135
3.41972
1106
3.4197
1134
3.41967
1157
3.41965
1194
3.41963
1117
3.4196
1171
3.41958
1171
3.41955
1177
3.41953
1228
3.41951
1173
3.41948
1182
3.41946
1160
3.41944
1203
3.41941
1078
3.41939
1182
3.41936
1139
3.41934
1152
3.41932
1201
3.41929
1127
3.41927
1143
3.41924
1226
3.41922
1160
3.4192
1168
3.41917
1162
3.41915
1139
3.41913
1138
3.4191
1146
3.41908
1156
3.41905
1171
3.41903
1191
3.41901
1197
3.41898
1150
3.41896
1170
3.41893
1152
3.41891
1136
3.41889
1160
3.41886
1141
3.41884
1170
3.41881
1186
3.41879
1123
3.41877
1145
3.41874
1206
3.41872
1202
3.4187
1142
3.41867
1123
3.41865
1141
3.41862
1169
3.4186
1186
3.41858
1191
3.41855
1141
3.41853
1212
3.4185
1169
3.41848
1155
3.41846
1205
3.41843
1156
3.41841
1125
3.41839
1168
3.41836
1186
3.41834
1164
3.41831
1182
3.41829
1150
3.41827
1128
3.41824
1154
3.41822
1167
3.41819
1184
3.41817
1176
3.41815
1134
3.41812
1115
3.4181
1168
3.41808
1160
3.41805
1176
3.41803
1147
3.418
1166
3.41798
1195
3.41796
1185
3.41793
1141
3.4179
1153
3.41786
1106
3.41781
1159
3.41777
1187
3.41773
1243
3.41769
1167
3.41765
1191
3.41761
1178
3.41757
1176
3.41753
1193
3.41748
1207
3.41744
1214
3.4174
1169
3.41736
1147
3.41732
1173
3.41728
1164
3.41724
O 1s/6
Not Specified
2017
7
4
12
37
14
0
9
Casa Info Follows
1
Calib M = 283.074 A = 284.6 BE ADD
0
0
0
   XPS     Spectrum    Lens Mode:Hybrid   Resolution:Pass energy 40    Iris(Aper):slot(Slot)
   Acqn. Time(s): 162        Sweeps: 3        Anode:Mono(Al (Mono))(150 W)   Step(meV): 50.0  
   Dwell Time(ms): 150        Charge Neutraliser :On   Acquired On :17/07/04 12:37:14
XPS
59
-3
0
Mono(Al (Mono))
1486.69
150
1e+037
1e+037
6000
6000
1e+037
1e+037
FAT
40
1e+037
-4.45
0
1e+037
1e+037
1e+037
1e+037
O
1s
-1
Kinetic Energy
eV
946.69
0.05
2
Intensity
d
Transmission
d
pulse counting
0.15
3
0
1e+037
1e+037
1e+037
0
722
766
8524
3.32569
3.34183
1225
3.34183
1229
3.34178
1209
3.34174
1193
3.34169
1171
3.34165
1199
3.3416
1294
3.34156
1284
3.34151
1215
3.34147
1178
3.34142
1191
3.34138
1178
3.34133
1167
3.34129
1146
3.34124
1131
3.3412
1193
3.34115
1222
3.34111
1124
3.34107
1105
3.34102
1088
3.34098
1072
3.34093
1167
3.34089
1155
3.34084
1168
3.3408
1124
3.34075
1140
3.34071
1128
3.34066
1180
3.34062
1214
3.34057
1163
3.34053
1150
3.34048
1177
3.34044
1182
3.34039
1103
3.34035
1133
3.3403
1185
3.34026
1146
3.34021
1164
3.34017
1132
3.34012
1147
3.34008
1131
3.34003
1132
3.33999
1122
3.33994
1109
3.3399
1127
3.33985
1145
3.33981
1115
3.33976
1078
3.33972
1091
3.33968
1143
3.33963
1118
3.33959
1149
3.33954
1134
3.3395
1087
3.33945
1073
3.33941
1117
3.33936
1146
3.33932
1100
3.33927
1155
3.33923
1133
3.33918
1176
3.33914
1113
3.33909
1156
3.33905
1158
3.339
1163
3.33896
1151
3.33891
1094
3.33887
1168
3.33882
1192
3.33878
1189
3.33873
1115
3.33869
1150
3.33864
1137
3.3386
1136
3.33855
1137
3.33851
1157
3.33846
1135
3.33842
1065
3.33837
1145
3.33833
1141
3.33829
1134
3.33824
1116
3.3382
1100
3.33815
1144
3.33811
1151
3.33806
1138
3.33802
1161
3.33797
1193
3.33793
1159
3.33788
1131
3.33784
1082
3.33779
1116
3.33775
1158
3.3377
1104
3.33766
1156
3.33761
1175
3.33757
1165
3.33752
1157
3.33748
1183
3.33743
1200
3.33739
1203
3.33734
1155
3.3373
1169
3.33725
1180
3.33721
1159
3.33716
1193
3.33712
1201
3.33707
1250
3.33703
1198
3.33698
1205
3.33694
1247
3.3369
1229
3.33685
1287
3.33681
1261
3.33676
1336
3.33672
1344
3.33667
1310
3.33663
1341
3.33658
1350
3.33654
1371
3.33649
1389
3.33645
1426
3.3364
1421
3.33636
1476
3.33631
1475
3.33627
1503
3.33622
1506
3.33618
1570
3.33613
1622
3.33609
1638
3.33604
1648
3.336
1767
3.33595
1690
3.33591
1783
3.33586
1816
3.33582
1841
3.33577
1928
3.33573
1958
3.33568
2032
3.33564
2138
3.3356
2130
3.33555
2286
3.33551
2320
3.33546
2378
3.33542
2479
3.33537
2506
3.33533
2694
3.33528
2794
3.33524
2775
3.33519
2978
3.33515
3089
3.3351
3146
3.33506
3339
3.33501
3444
3.33497
3525
3.33492
3697
3.33488
3914
3.33483
4123
3.33479
4313
3.33474
4416
3.3347
4516
3.33465
4660
3.33461
4938
3.33456
5231
3.33452
5369
3.33447
5581
3.33443
5789
3.33438
6055
3.33434
6265
3.33429
6474
3.33425
6782
3.33421
6796
3.33416
7076
3.33412
7275
3.33407
7534
3.33403
7670
3.33398
7811
3.33394
7972
3.33389
8323
3.33385
8372
3.3338
8343
3.33376
8503
3.33371
8350
3.33367
8389
3.33362
8524
3.33358
8512
3.33353
8420
3.33349
8340
3.33344
8123
3.3334
8010
3.33335
7891
3.33331
7650
3.33326
7473
3.33322
7282
3.33317
7193
3.33313
6872
3.33308
6697
3.33304
6526
3.33299
6252
3.33295
5993
3.3329
5707
3.33286
5596
3.33282
5448
3.33277
5235
3.33273
5051
3.33268
4777
3.33264
4619
3.33259
4282
3.33255
4111
3.3325
4065
3.33246
3887
3.33241
3798
3.33237
3557
3.33232
3272
3.33228
3265
3.33223
3026
3.33219
2949
3.33214
2779
3.3321
2674
3.33205
2499
3.33201
2306
3.33196
2351
3.33192
2153
3.33187
2087
3.33183
1922
3.33178
1875
3.33174
1883
3.33169
1724
3.33165
1611
3.3316
1528
3.33156
1470
3.33151
1490
3.33147
1365
3.33143
1340
3.33138
1294
3.33134
1238
3.33129
1229
3.33125
1173
3.3312
1134
3.33116
1140
3.33111
1103
3.33107
1072
3.33102
1037
3.33098
1019
3.33093
1015
3.33089
1001
3.33084
964
3.3308
943
3.33075
927
3.33071
967
3.33066
965
3.33062
918
3.33057
899
3.33053
888
3.33048
893
3.33044
945
3.33039
937
3.33035
923
3.3303
864
3.33026
918
3.33021
952
3.33017
892
3.33012
877
3.33008
901
3.33004
910
3.32999
909
3.32995
947
3.3299
919
3.32986
883
3.32981
863
3.32977
876
3.32972
910
3.32968
888
3.32963
891
3.32959
887
3.32954
892
3.3295
909
3.32945
884
3.32941
849
3.32936
914
3.32932
883
3.32927
847
3.32923
857
3.32918
889
3.32914
872
3.32909
888
3.32905
829
3.329
851
3.32896
871
3.32891
829
3.32887
848
3.32882
856
3.32878
841
3.32873
875
3.32869
933
3.32865
905
3.3286
889
3.32856
881
3.32851
832
3.32847
872
3.32842
856
3.32838
890
3.32833
897
3.32829
888
3.32824
886
3.3282
880
3.32815
859
3.32811
847
3.32806
864
3.32802
888
3.32797
829
3.32793
851
3.32788
854
3.32784
839
3.32779
839
3.32775
845
3.3277
869
3.32766
885
3.32761
825
3.32757
885
3.32752
888
3.32748
873
3.32743
856
3.32739
858
3.32735
840
3.3273
872
3.32726
854
3.32721
859
3.32717
897
3.32712
889
3.32708
829
3.32703
902
3.32699
823
3.32694
803
3.3269
851
3.32685
878
3.32681
841
3.32676
823
3.32672
858
3.32667
892
3.32663
881
3.32658
841
3.32654
843
3.32649
856
3.32645
766
3.3264
834
3.32636
811
3.32631
883
3.32627
806
3.32622
837
3.32618
824
3.32613
852
3.32609
850
3.32604
850
3.326
800
3.32596
851
3.32591
834
3.32587
851
3.32582
872
3.32578
892
3.32573
878
3.32569
C 1s/7
Not Specified
2017
7
4
12
37
14
0
9
Casa Info Follows
1
Calib M = 283.074 A = 284.6 BE ADD
0
0
0
   XPS     Spectrum    Lens Mode:Hybrid   Resolution:Pass energy 40    Iris(Aper):slot(Slot)
   Acqn. Time(s): 138        Sweeps: 2        Anode:Mono(Al (Mono))(150 W)   Step(meV): 50.0  
   Dwell Time(ms): 150        Charge Neutraliser :On   Acquired On :17/07/04 12:37:14
XPS
59
-3
0
Mono(Al (Mono))
1486.69
150
1e+037
1e+037
6000
6000
1e+037
1e+037
FAT
40
1e+037
-4.45
0
1e+037
1e+037
1e+037
1e+037
C
1s
-1
Kinetic Energy
eV
1190.19
0.05
2
Intensity
d
Transmission
d
pulse counting
0.15
2
0
1e+037
1e+037
1e+037
0
922
81
3003
3.16755
3.19198
398
3.16755
376
3.1676
379
3.16765
382
3.16771
388
3.16776
403
3.16781
370
3.16787
361
3.16792
396
3.16797
409
3.16802
347
3.16808
365
3.16813
367
3.16818
384
3.16824
358
3.16829
385
3.16834
379
3.1684
365
3.16845
398
3.1685
379
3.16856
371
3.16861
360
3.16866
349
3.16871
357
3.16877
343
3.16882
343
3.16887
352
3.16893
364
3.16898
340
3.16903
336
3.16909
337
3.16914
343
3.16919
378
3.16925
378
3.1693
359
3.16935
344
3.16941
345
3.16946
310
3.16951
299
3.16956
357
3.16962
350
3.16967
335
3.16972
339
3.16978
351
3.16983
347
3.16988
352
3.16994
329
3.16999
379
3.17004
347
3.1701
310
3.17015
365
3.1702
341
3.17025
343
3.17031
328
3.17036
308
3.17041
336
3.17047
309
3.17052
313
3.17057
330
3.17063
314
3.17068
300
3.17073
320
3.17079
344
3.17084
311
3.17089
317
3.17095
322
3.171
311
3.17105
336
3.1711
343
3.17116
316
3.17121
304
3.17126
338
3.17132
306
3.17137
318
3.17142
293
3.17148
319
3.17153
285
3.17158
289
3.17164
320
3.17169
329
3.17174
291
3.17179
300
3.17185
322
3.1719
309
3.17195
314
3.17201
293
3.17206
306
3.17211
296
3.17217
315
3.17222
295
3.17227
317
3.17233
312
3.17238
304
3.17243
320
3.17249
345
3.17254
357
3.17259
339
3.17264
289
3.1727
317
3.17275
327
3.1728
329
3.17286
330
3.17291
331
3.17296
344
3.17302
338
3.17307
347
3.17312
330
3.17318
354
3.17323
344
3.17328
329
3.17334
327
3.17339
359
3.17344
352
3.17349
356
3.17355
373
3.1736
388
3.17365
361
3.17371
384
3.17376
410
3.17381
384
3.17387
398
3.17392
429
3.17397
427
3.17403
422
3.17408
463
3.17413
456
3.17418
468
3.17424
467
3.17429
512
3.17434
519
3.1744
539
3.17445
532
3.1745
520
3.17456
571
3.17461
601
3.17466
579
3.17472
606
3.17477
569
3.17482
576
3.17488
600
3.17493
619
3.17498
644
3.17503
663
3.17509
636
3.17514
597
3.17519
655
3.17525
644
3.1753
700
3.17535
690
3.17541
732
3.17546
732
3.17551
754
3.17557
789
3.17562
859
3.17567
863
3.17572
874
3.17578
912
3.17583
972
3.17588
994
3.17594
1083
3.17599
1120
3.17604
1161
3.1761
1247
3.17615
1308
3.1762
1397
3.17626
1458
3.17631
1456
3.17636
1610
3.17642
1639
3.17647
1740
3.17652
1831
3.17657
1890
3.17663
1950
3.17668
1921
3.17673
2009
3.17679
1973
3.17684
2015
3.17689
2031
3.17695
2052
3.177
2038
3.17705
2029
3.17711
1964
3.17716
1905
3.17721
1869
3.17726
1776
3.17732
1721
3.17737
1723
3.17742
1686
3.17748
1628
3.17753
1529
3.17758
1529
3.17764
1543
3.17769
1504
3.17774
1511
3.1778
1447
3.17785
1475
3.1779
1422
3.17796
1460
3.17801
1481
3.17806
1415
3.17811
1378
3.17817
1433
3.17822
1390
3.17827
1415
3.17833
1429
3.17838
1459
3.17843
1459
3.17849
1566
3.17854
1563
3.17859
1638
3.17865
1669
3.1787
1731
3.17875
1771
3.17881
1835
3.17886
1938
3.17891
2046
3.17896
2093
3.17902
2142
3.17907
2222
3.17912
2264
3.17918
2489
3.17923
2595
3.17928
2613
3.17934
2718
3.17939
2764
3.17944
2819
3.1795
2902
3.17955
3000
3.1796
2998
3.17965
2994
3.17971
3002
3.17976
3003
3.17981
2879
3.17987
2935
3.17992
2856
3.17997
2760
3.18003
2719
3.18008
2608
3.18013
2634
3.18019
2460
3.18024
2416
3.18029
2302
3.18035
2208
3.1804
2106
3.18045
2083
3.1805
2019
3.18056
1981
3.18061
1928
3.18066
1895
3.18072
1855
3.18077
1890
3.18082
1885
3.18088
1902
3.18093
1909
3.18098
1849
3.18104
1896
3.18109
1968
3.18114
1935
3.1812
1942
3.18125
2057
3.1813
2117
3.18135
2150
3.18141
2162
3.18146
2225
3.18151
2156
3.18157
2228
3.18162
2276
3.18167
2367
3.18173
2288
3.18178
2240
3.18183
2176
3.18189
2187
3.18194
2193
3.18199
2226
3.18204
2219
3.1821
2156
3.18215
2054
3.1822
2036
3.18226
1932
3.18231
1869
3.18236
1831
3.18242
1813
3.18247
1673
3.18252
1670
3.18258
1531
3.18263
1450
3.18268
1385
3.18274
1327
3.18279
1205
3.18284
1141
3.18289
1051
3.18295
998
3.183
917
3.18305
823
3.18311
770
3.18316
673
3.18321
609
3.18327
593
3.18332
496
3.18337
478
3.18343
406
3.18348
383
3.18353
383
3.18358
324
3.18364
317
3.18369
298
3.18374
239
3.1838
225
3.18385
211
3.1839
162
3.18396
208
3.18401
168
3.18406
155
3.18412
175
3.18417
151
3.18422
166
3.18428
143
3.18433
139
3.18438
133
3.18443
136
3.18449
135
3.18454
149
3.18459
137
3.18465
130
3.1847
129
3.18475
125
3.18481
128
3.18486
127
3.18491
120
3.18497
108
3.18502
117
3.18507
128
3.18512
100
3.18518
105
3.18523
123
3.18528
112
3.18534
117
3.18539
106
3.18544
98
3.1855
112
3.18555
110
3.1856
101
3.18566
125
3.18571
113
3.18576
109
3.18582
101
3.18587
104
3.18592
114
3.18597
123
3.18603
118
3.18608
99
3.18613
104
3.18619
113
3.18624
111
3.18629
98
3.18635
128
3.1864
82
3.18645
82
3.18651
101
3.18656
102
3.18661
109
3.18667
117
3.18672
113
3.18677
103
3.18682
115
3.18688
105
3.18693
100
3.18698
108
3.18704
108
3.18709
91
3.18714
87
3.1872
107
3.18725
100
3.1873
97
3.18736
102
3.18741
114
3.18746
110
3.18751
99
3.18757
104
3.18762
105
3.18767
106
3.18773
113
3.18778
96
3.18783
85
3.18789
131
3.18794
109
3.18799
97
3.18805
103
3.1881
87
3.18815
124
3.18821
100
3.18826
106
3.18831
109
3.18836
106
3.18842
121
3.18847
109
3.18852
90
3.18858
103
3.18863
126
3.18868
100
3.18874
107
3.18879
112
3.18884
104
3.1889
110
3.18895
116
3.189
97
3.18905
97
3.18911
95
3.18916
99
3.18921
87
3.18927
103
3.18932
109
3.18937
110
3.18943
104
3.18948
99
3.18953
111
3.18959
106
3.18964
103
3.18969
108
3.18975
103
3.1898
100
3.18985
110
3.1899
103
3.18996
95
3.19001
93
3.19006
88
3.19012
95
3.19017
107
3.19022
113
3.19028
115
3.19033
96
3.19038
103
3.19044
98
3.19049
98
3.19054
81
3.19059
96
3.19065
103
3.1907
98
3.19075
110
3.19081
108
3.19086
105
3.19091
101
3.19097
109
3.19102
102
3.19107
100
3.19113
103
3.19118
99
3.19123
92
3.19129
102
3.19134
100
3.19139
95
3.19144
90
3.1915
99
3.19155
88
3.1916
95
3.19166
93
3.19171
103
3.19176
107
3.19182
89
3.19187
88
3.19192
114
3.19198
end of experiment
