VAMAS Surface Chemical Analysis Standard Data Transfer Format 1988 May 4
Not Specified
Kratos Axis
Not Specified
/d=/data/20170705/2017006144/A2.dset
3
Casa Info Follows
0
SourceAnalyserAngle: Not Specified
MAP
REGULAR
4
2
32768
32768
1
Etch Time
s
0
0
0
0
4
wide/2
Not Specified
2017
7
4
10
47
6
0
23
Casa Info Follows
1
Calib M = 283.291 A = 284.6 BE ADD
7
annot text peak Data 1197.38 1551 RGB(0,0,0) Font(14,18,0,0,Times New Roman) Vertical
C 1s
annot text peak Data 509.381 1864 RGB(0,0,0) Font(14,18,0,0,Times New Roman) Vertical
O KLL
annot text peak Data 954.381 2618 RGB(0,0,0) Font(14,18,0,0,Times New Roman) Vertical
O 1s
annot text peak Data 642 1405 RGB(0,0,0) Font(14,18,0,0,Times New Roman) Vertical
F KLL
annot text peak Data 799.381 4720 RGB(0,0,0) Font(14,18,0,0,Times New Roman) Vertical
F 1s
annot text peak Data 1257.69 79 RGB(0,0,0) Font(14,18,0,0,Times New Roman) Vertical
S 2s
annot text peak Data 1319.38 121 RGB(0,0,0) Font(14,18,0,0,Times New Roman) Vertical
S 2p
0
0
   XPS     Spectrum    Lens Mode:Hybrid   Resolution:Pass energy 80    Iris(Aper):slot(Slot)
   Acqn. Time(s): 110        Sweeps: 1        Anode:Mono(Al (Mono))(150 W)   Step(meV): 1000.0
   Dwell Time(ms): 100        Charge Neutraliser :On   Acquired On :17/07/04 10:47:06
XPS
68
-2
0
Mono(Al (Mono))
1486.69
150
1e+037
1e+037
6000
6000
1e+037
1e+037
FAT
80
1e+037
-4.45
0
1e+037
1e+037
1e+037
1e+037
Wide
None
-1
Kinetic Energy
eV
386.69
1
2
Intensity
d
Transmission
d
pulse counting
0.1
1
0
1e+037
1e+037
1e+037
0
2202
0
4720
8.48115
10.2364
1552
10.2364
1525
10.2286
1510
10.2207
1521
10.2129
1529
10.2051
1499
10.1972
1449
10.1894
1532
10.1815
1477
10.1737
1485
10.1658
1550
10.158
1543
10.1502
1520
10.1423
1590
10.1345
1531
10.1266
1499
10.1188
1535
10.1109
1486
10.1031
1469
10.0953
1550
10.0874
1495
10.0796
1554
10.0717
1521
10.0639
1587
10.056
1525
10.0492
1518
10.0427
1536
10.0362
1522
10.0296
1512
10.0231
1507
10.0166
1570
10.0101
1555
10.0035
1550
9.997
1565
9.99047
1488
9.98395
1541
9.97742
1628
9.97089
1540
9.96436
1529
9.95784
1596
9.95131
1630
9.94478
1519
9.93825
1531
9.93173
1551
9.9252
1623
9.91867
1576
9.91215
1629
9.90562
1689
9.89909
1580
9.89256
1554
9.88604
1547
9.87951
1592
9.87298
1617
9.86645
1584
9.85993
1555
9.8534
1555
9.84687
1549
9.84034
1560
9.83382
1634
9.82729
1653
9.82076
1606
9.81423
1617
9.80771
1620
9.80118
1598
9.79465
1612
9.78813
1645
9.7816
1614
9.77507
1641
9.76854
1629
9.76202
1608
9.75549
1607
9.74896
1621
9.74243
1640
9.73591
1608
9.72938
1638
9.72439
1631
9.71983
1636
9.71527
1601
9.71071
1639
9.70615
1652
9.7016
1644
9.69704
1690
9.69248
1685
9.68792
1640
9.68336
1611
9.67881
1681
9.67425
1707
9.66969
1674
9.66513
1680
9.66057
1621
9.65602
1651
9.65146
1696
9.6469
1689
9.64234
1626
9.63778
1635
9.63322
1659
9.62867
1724
9.62411
1715
9.61955
1814
9.61499
1723
9.61043
1685
9.60588
1777
9.60132
1755
9.59676
1651
9.5922
1723
9.58764
1727
9.58309
1744
9.57853
1666
9.57397
1722
9.56941
1693
9.56485
1668
9.56029
1646
9.55574
1611
9.55118
1617
9.54662
1608
9.54206
1576
9.5375
1616
9.53294
1686
9.52839
1680
9.52383
1679
9.51927
1682
9.51471
1693
9.51015
1784
9.5056
1829
9.50104
1864
9.4966
1839
9.49219
1793
9.48778
1789
9.48337
1769
9.47896
1696
9.47455
1677
9.47014
1595
9.46573
1612
9.46132
1529
9.45691
1431
9.45251
1433
9.4481
1427
9.44369
1374
9.43928
1368
9.43487
1377
9.43046
1361
9.42605
1368
9.42164
1302
9.41723
1339
9.41282
1392
9.40841
1351
9.40401
1379
9.3996
1323
9.39519
1340
9.39078
1319
9.38637
1361
9.38196
1378
9.37755
1371
9.37314
1313
9.36873
1352
9.36432
1389
9.35992
1369
9.35551
1343
9.3511
1392
9.34669
1358
9.34228
1401
9.33787
1387
9.33346
1390
9.32905
1374
9.32464
1341
9.32023
1341
9.31583
1332
9.31142
1348
9.30701
1393
9.3026
1366
9.29819
1339
9.29378
1349
9.28937
1373
9.28496
1435
9.28055
1425
9.27708
1366
9.27386
1374
9.27065
1370
9.26744
1361
9.26422
1403
9.26101
1395
9.2578
1389
9.25458
1393
9.25137
1405
9.24816
1394
9.24494
1417
9.24173
1379
9.23852
1423
9.2353
1429
9.23209
1402
9.22888
1394
9.22566
1422
9.22245
1439
9.21924
1392
9.21602
1489
9.21281
1422
9.2096
1431
9.20638
1377
9.20317
1426
9.19996
1453
9.19674
1496
9.19353
1446
9.19032
1420
9.1871
1483
9.18389
1496
9.18068
1482
9.17746
1460
9.17425
1439
9.17104
1465
9.16782
1476
9.16461
1467
9.1614
1486
9.15818
1538
9.15497
1513
9.15176
1525
9.14854
1524
9.14533
1419
9.14212
1485
9.1389
1475
9.13569
1531
9.13247
1567
9.12926
1504
9.12605
1568
9.12284
1593
9.11962
1563
9.11731
1523
9.11525
1484
9.11319
1514
9.11112
1496
9.10906
1485
9.107
1526
9.10494
1503
9.10288
1560
9.10082
1471
9.09876
1548
9.0967
1583
9.09464
1582
9.09258
1598
9.09052
1676
9.08845
1677
9.08639
1672
9.08433
1800
9.08227
1732
9.08021
1648
9.07815
1634
9.07609
1642
9.07403
1613
9.07197
1642
9.06991
1578
9.06785
1585
9.06578
1650
9.06372
1564
9.06166
1511
9.0596
1490
9.05754
1433
9.05548
1444
9.05342
1405
9.05136
1407
9.0493
1432
9.04724
1510
9.04518
1517
9.04311
1495
9.04105
1579
9.03899
1641
9.03693
1796
9.03487
1948
9.03281
2152
9.03075
2232
9.02869
2343
9.02663
2352
9.02457
2185
9.0225
2031
9.02044
1917
9.01838
1791
9.01632
1636
9.01335
1579
9.01012
1567
9.0069
1499
9.00367
1365
9.00044
1384
8.99721
1228
8.99398
1247
8.99076
1203
8.98753
1156
8.9843
1092
8.98107
1165
8.97784
1135
8.97462
1156
8.97139
1165
8.96816
1166
8.96493
1085
8.9617
1116
8.95848
1109
8.95525
1076
8.95202
1103
8.94879
1158
8.94556
1117
8.94234
1131
8.93911
1145
8.93588
1135
8.93265
1079
8.92942
1147
8.9262
1175
8.92297
1126
8.91974
1085
8.91651
1093
8.91328
1146
8.91006
1110
8.90683
1110
8.9036
1079
8.90037
1108
8.89714
1121
8.89392
1143
8.89069
1173
8.88746
1149
8.88483
1154
8.88236
1147
8.8799
1146
8.87743
1138
8.87497
1152
8.87251
1125
8.87004
1127
8.86758
1159
8.86511
1163
8.86265
1170
8.86019
1136
8.85772
1152
8.85526
1138
8.85279
1202
8.85033
1180
8.84786
1149
8.8454
1126
8.84294
1128
8.84047
1178
8.83801
1176
8.83554
1187
8.83308
1159
8.83062
1120
8.82815
1119
8.82569
1144
8.82322
1211
8.82076
1155
8.81829
1110
8.81583
1120
8.81337
1158
8.8109
1228
8.80844
1181
8.80597
1153
8.80351
1149
8.80104
1139
8.79858
1182
8.79612
1148
8.79365
1166
8.79119
1233
8.78872
1241
8.78626
1219
8.7838
1214
8.78133
1186
8.77887
1174
8.7764
1187
8.77394
1135
8.77147
1128
8.76901
1176
8.76655
1201
8.76408
1157
8.76162
1196
8.75915
1211
8.75669
1227
8.75422
1173
8.75176
1191
8.7493
1152
8.74683
1144
8.74437
1156
8.7419
1176
8.73944
1175
8.73885
1238
8.73879
1239
8.73873
1305
8.73867
1236
8.73861
1214
8.73855
1301
8.73849
1319
8.73843
1266
8.73837
1273
8.73831
1244
8.73825
1225
8.73819
1283
8.73813
1250
8.73806
1222
8.738
1259
8.73794
1240
8.73788
1231
8.73782
1182
8.73776
1233
8.7377
1197
8.73764
1146
8.73758
1194
8.73752
1110
8.73746
1056
8.7374
1061
8.73734
969
8.73728
987
8.73722
976
8.73716
982
8.7371
943
8.73704
906
8.73698
905
8.73692
916
8.73686
948
8.7368
1084
8.73674
1440
8.73668
2035
8.73662
2965
8.73655
4649
8.73649
4720
8.73643
2392
8.73637
1082
8.73631
878
8.73625
842
8.73619
794
8.73613
775
8.73607
796
8.73601
847
8.73595
784
8.73589
762
8.73468
800
8.73314
813
8.73161
825
8.73007
808
8.72854
792
8.727
837
8.72547
848
8.72393
827
8.7224
782
8.72086
776
8.71933
793
8.71779
809
8.71626
838
8.71472
801
8.71319
825
8.71165
798
8.71012
794
8.70858
850
8.70705
762
8.70551
794
8.70398
851
8.70244
808
8.70091
810
8.69937
831
8.69784
836
8.6963
829
8.69477
845
8.69323
848
8.6917
855
8.69016
845
8.68863
825
8.68709
817
8.68556
809
8.68402
828
8.68249
821
8.68095
821
8.67942
804
8.67788
832
8.67635
827
8.67481
847
8.67328
836
8.67174
808
8.67021
812
8.66867
794
8.66714
793
8.6656
805
8.66407
806
8.66253
848
8.661
851
8.65946
806
8.65793
802
8.65639
749
8.65486
818
8.65332
791
8.65179
839
8.65025
846
8.64872
838
8.64718
829
8.64565
775
8.64411
831
8.64417
838
8.64468
816
8.64518
793
8.64569
821
8.6462
778
8.6467
831
8.64721
791
8.64772
817
8.64822
820
8.64873
824
8.64924
836
8.64974
844
8.65025
792
8.65075
776
8.65126
802
8.65177
823
8.65228
840
8.65278
782
8.65329
805
8.65379
815
8.6543
815
8.65481
835
8.65531
817
8.65582
804
8.65633
829
8.65683
795
8.65734
779
8.65785
819
8.65835
847
8.65886
832
8.65937
838
8.65987
834
8.66038
809
8.66089
787
8.66139
807
8.6619
846
8.66241
816
8.66291
854
8.66342
837
8.66393
774
8.66317
815
8.66206
793
8.66095
826
8.65984
750
8.65872
809
8.65761
827
8.6565
806
8.65539
804
8.65428
821
8.65317
807
8.65206
809
8.65094
820
8.64983
800
8.64872
788
8.64761
749
8.6465
843
8.64539
853
8.64428
818
8.64317
823
8.64205
845
8.64094
859
8.63983
825
8.63872
822
8.63761
850
8.6365
782
8.63539
750
8.63427
716
8.63316
707
8.63205
728
8.63094
693
8.62983
656
8.62872
638
8.62761
636
8.6265
606
8.62538
565
8.62427
541
8.62316
505
8.62205
510
8.62094
542
8.61983
554
8.61872
722
8.6176
994
8.61649
1377
8.61538
2038
8.61427
2618
8.61316
2140
8.61205
1190
8.61094
596
8.60983
444
8.60871
411
8.6076
398
8.60649
401
8.60538
388
8.60427
414
8.60316
394
8.60205
408
8.60093
398
8.59982
392
8.59871
406
8.5976
395
8.59692
394
8.59635
396
8.59579
419
8.59522
404
8.59466
418
8.5941
420
8.59353
408
8.59297
401
8.5924
401
8.59184
385
8.59128
374
8.59071
402
8.59015
436
8.58958
389
8.58902
395
8.58846
372
8.58789
387
8.58733
404
8.58676
423
8.5862
414
8.58564
409
8.58507
400
8.58451
431
8.58394
412
8.58338
391
8.58282
402
8.58225
407
8.58169
395
8.58112
383
8.58056
391
8.58
424
8.57943
419
8.57887
386
8.5783
398
8.57774
380
8.57718
399
8.57661
396
8.57605
403
8.57548
420
8.57492
426
8.57413
390
8.57328
392
8.57243
435
8.57158
416
8.57074
410
8.56989
416
8.56904
403
8.56819
423
8.56734
372
8.56649
426
8.56564
446
8.56479
434
8.56394
420
8.56309
399
8.56224
412
8.56139
390
8.56055
395
8.5597
447
8.55885
446
8.558
382
8.55715
431
8.5563
418
8.55545
435
8.5546
459
8.55375
419
8.5529
412
8.55205
408
8.5512
383
8.55035
433
8.54951
451
8.54866
407
8.54781
436
8.54696
428
8.54611
410
8.54526
413
8.54441
424
8.54356
441
8.54271
428
8.54186
425
8.54101
412
8.54016
406
8.53932
397
8.53847
424
8.53762
408
8.53677
413
8.53592
421
8.53507
432
8.53422
419
8.53337
424
8.53252
406
8.5335
412
8.535
421
8.5365
413
8.538
429
8.5395
411
8.541
399
8.5425
435
8.544
432
8.5455
430
8.547
425
8.5485
421
8.55
411
8.5515
403
8.553
405
8.5545
436
8.556
402
8.5575
401
8.55899
441
8.56049
461
8.56199
462
8.56349
437
8.56499
439
8.56649
429
8.56799
428
8.56949
482
8.57099
489
8.57249
468
8.57399
449
8.57549
434
8.57699
438
8.57849
426
8.57999
446
8.58149
453
8.58298
436
8.58448
406
8.58598
407
8.58748
423
8.58898
404
8.59048
382
8.59198
437
8.59135
423
8.59011
437
8.58887
436
8.58763
445
8.58639
436
8.58515
408
8.58392
423
8.58268
478
8.58144
424
8.5802
420
8.57896
385
8.57773
403
8.57649
445
8.57525
462
8.57401
466
8.57277
481
8.57154
465
8.5703
501
8.56906
462
8.56782
463
8.56658
449
8.56534
443
8.56411
454
8.56287
466
8.56163
443
8.56039
431
8.55915
465
8.55792
465
8.55668
421
8.55544
493
8.5542
460
8.55296
461
8.55173
458
8.55049
446
8.54925
467
8.54801
435
8.54677
428
8.54553
481
8.5443
465
8.54306
468
8.54182
468
8.54058
447
8.53934
456
8.53811
495
8.53687
472
8.53563
430
8.53439
448
8.53315
484
8.53191
443
8.53068
508
8.52944
500
8.5282
470
8.52696
490
8.52572
447
8.52449
440
8.52325
472
8.52201
458
8.52077
456
8.51953
460
8.5183
481
8.51706
472
8.51582
471
8.51458
495
8.51334
498
8.5121
490
8.51087
518
8.50963
517
8.50839
482
8.50715
525
8.50591
492
8.50468
519
8.50344
496
8.5022
510
8.50096
508
8.49972
514
8.49849
459
8.49725
483
8.49601
472
8.49477
449
8.49353
472
8.49229
455
8.49106
415
8.48982
397
8.48858
391
8.48734
376
8.4861
350
8.48487
324
8.48363
303
8.48239
290
8.48115
263
8.4832
250
8.48617
243
8.48914
239
8.49212
296
8.49509
448
8.49806
599
8.50104
934
8.50401
1551
8.50698
1539
8.50995
1346
8.51293
1389
8.5159
1112
8.51887
903
8.52185
579
8.52482
236
8.52779
102
8.53077
69
8.53374
81
8.53671
71
8.53969
86
8.54266
69
8.54563
81
8.5486
81
8.55158
70
8.55455
80
8.55752
83
8.5605
73
8.56347
84
8.56644
76
8.56942
64
8.57239
78
8.57536
74
8.57833
71
8.58131
62
8.58428
71
8.58725
77
8.59023
83
8.5932
64
8.59617
64
8.59915
80
8.60212
87
8.60509
88
8.60806
63
8.61104
81
8.61401
71
8.61698
75
8.61996
75
8.62293
68
8.6259
77
8.62888
70
8.63012
74
8.63087
68
8.63163
70
8.63238
68
8.63314
59
8.63389
65
8.63465
70
8.6354
79
8.63616
70
8.63691
73
8.63767
90
8.63842
86
8.63918
92
8.63993
99
8.64069
94
8.64144
114
8.64219
95
8.64295
79
8.6437
84
8.64446
66
8.64521
61
8.64597
81
8.64672
62
8.64748
90
8.64823
66
8.64899
72
8.64974
81
8.6505
73
8.65125
75
8.65201
76
8.65276
72
8.65352
76
8.65427
65
8.65503
66
8.65578
68
8.65654
70
8.65729
70
8.65804
80
8.6588
65
8.65955
61
8.66031
73
8.66106
63
8.66182
63
8.66257
73
8.66333
70
8.66408
85
8.66484
96
8.66559
92
8.66635
77
8.6671
66
8.66786
68
8.66861
61
8.66937
75
8.67012
85
8.67088
69
8.67163
76
8.67239
78
8.67314
76
8.6739
68
8.67465
67
8.6743
67
8.67363
52
8.67297
71
8.6723
68
8.67163
63
8.67097
74
8.6703
74
8.66964
56
8.66897
56
8.6683
52
8.66764
66
8.66697
72
8.66631
54
8.66564
80
8.66498
69
8.66431
76
8.66364
92
8.66298
109
8.66231
112
8.66165
121
8.66098
71
8.66032
61
8.65965
69
8.65898
63
8.65832
66
8.65765
48
8.65699
68
8.65632
61
8.65565
75
8.65499
64
8.65432
60
8.65366
49
8.65299
57
8.65233
71
8.65166
68
8.65099
64
8.65033
72
8.64966
47
8.649
68
8.64833
86
8.64767
63
8.647
59
8.64633
66
8.64567
55
8.645
55
8.64434
66
8.64367
70
8.643
64
8.64234
62
8.64167
69
8.64101
63
8.64034
75
8.63968
66
8.63901
59
8.63834
65
8.63768
63
8.6398
64
8.64272
57
8.64563
57
8.64854
62
8.65146
66
8.65437
81
8.65728
61
8.6602
52
8.66311
62
8.66602
57
8.66894
62
8.67185
83
8.67476
60
8.67768
69
8.68059
66
8.6835
77
8.68642
57
8.68933
51
8.69224
55
8.69516
44
8.69807
60
8.70098
53
8.7039
64
8.70681
62
8.70972
79
8.71264
80
8.71555
72
8.71846
68
8.72137
66
8.72429
67
8.7272
75
8.73011
60
8.73303
60
8.73594
63
8.73885
60
8.74177
65
8.74468
61
8.74759
63
8.75051
73
8.75342
63
8.75633
70
8.75925
76
8.76216
76
8.76507
60
8.76799
62
8.7709
82
8.77381
52
8.77673
82
8.77964
80
8.78255
66
8.78547
55
8.78838
64
8.79129
69
8.79421
69
8.79712
81
8.80003
76
8.80295
66
8.80586
50
8.80877
77
8.81169
78
8.8146
73
8.81751
60
8.82043
60
8.82334
61
8.82625
85
8.82916
77
8.83208
84
8.83499
78
8.8379
62
8.84082
65
8.84373
74
8.84664
74
8.84956
74
8.85247
81
8.85538
74
8.8583
74
8.86121
72
8.86412
72
8.86704
77
8.86995
87
8.87286
76
8.87578
71
8.87869
67
8.8816
64
8.88452
66
8.88743
64
8.89034
53
8.89326
60
8.89617
66
8.89908
50
8.902
63
8.90491
65
8.90782
77
8.91074
77
8.91365
97
8.91656
126
8.91948
157
8.92239
171
8.9253
150
8.92822
110
8.93113
86
8.93404
73
8.93695
92
8.93987
88
8.94051
74
8.94051
81
8.94051
62
8.94051
49
8.94051
66
8.94051
60
8.94051
48
8.94051
56
8.94051
57
8.94051
59
8.94051
83
8.94051
83
8.94051
75
8.94051
72
8.94051
56
8.94051
55
8.94051
55
8.94051
58
8.94051
44
8.94051
29
8.94051
31
8.94051
20
8.94051
16
8.94051
8
8.94051
4
8.94051
0
8.94051
F 1s/5
Not Specified
2017
7
4
12
47
15
0
9
Casa Info Follows
1
Calib M = 283.291 A = 284.6 BE ADD
0
0
0
   XPS     Spectrum    Lens Mode:Hybrid   Resolution:Pass energy 40    Iris(Aper):slot(Slot)
   Acqn. Time(s): 121        Sweeps: 2        Anode:Mono(Al (Mono))(150 W)   Step(meV): 50.0  
   Dwell Time(ms): 150        Charge Neutraliser :On   Acquired On :17/07/04 12:47:15
XPS
68
-2
0
Mono(Al (Mono))
1486.69
150
1e+037
1e+037
6000
6000
1e+037
1e+037
FAT
40
1e+037
-4.45
0
1e+037
1e+037
1e+037
1e+037
F
1s
-1
Kinetic Energy
eV
790.64
0.05
2
Intensity
d
Transmission
d
pulse counting
0.15
2
0
1e+037
1e+037
1e+037
0
806
856
7218
3.41724
3.42712
1064
3.42712
1065
3.4271
1035
3.42707
1031
3.42705
1017
3.42702
1064
3.427
1020
3.42698
1038
3.42695
1075
3.42693
1005
3.4269
1047
3.42688
1044
3.42686
1039
3.42683
1053
3.42681
1062
3.42678
1008
3.42676
1003
3.42674
1010
3.42671
1063
3.42669
1054
3.42667
1031
3.42664
1024
3.42662
1040
3.42659
1014
3.42657
1063
3.42655
1037
3.42652
1023
3.4265
1043
3.42647
1040
3.42645
1030
3.42643
967
3.4264
1040
3.42638
1051
3.42636
1006
3.42633
987
3.42631
1023
3.42628
1032
3.42626
1037
3.42624
1041
3.42621
1002
3.42619
985
3.42616
1019
3.42614
1003
3.42612
1048
3.42609
1061
3.42607
1041
3.42605
1028
3.42602
994
3.426
1051
3.42597
1002
3.42595
999
3.42593
1030
3.4259
1012
3.42588
993
3.42585
1006
3.42583
1075
3.42581
1014
3.42578
1029
3.42576
1013
3.42573
1024
3.42571
1054
3.42569
1026
3.42566
1014
3.42564
1034
3.42562
1048
3.42559
1017
3.42557
1006
3.42554
1053
3.42552
1028
3.4255
1081
3.42547
1038
3.42545
1031
3.42542
996
3.4254
1045
3.42538
1063
3.42535
1105
3.42533
1092
3.42531
1057
3.42528
1104
3.42526
1104
3.42523
1055
3.42521
1104
3.42519
1097
3.42516
1145
3.42514
1166
3.42511
1201
3.42509
1218
3.42507
1234
3.42504
1172
3.42502
1141
3.425
1187
3.42497
1186
3.42495
1234
3.42492
1243
3.4249
1286
3.42488
1294
3.42485
1309
3.42483
1302
3.4248
1325
3.42478
1329
3.42476
1346
3.42473
1357
3.42471
1401
3.42469
1386
3.42466
1381
3.42464
1439
3.42461
1497
3.42459
1515
3.42457
1542
3.42454
1516
3.42452
1563
3.42449
1579
3.42447
1544
3.42445
1599
3.42442
1574
3.4244
1554
3.42437
1546
3.42435
1635
3.42433
1695
3.4243
1713
3.42428
1699
3.42426
1725
3.42423
1716
3.42421
1746
3.42418
1800
3.42416
1857
3.42414
1802
3.42411
1873
3.42409
1952
3.42406
1965
3.42404
1953
3.42402
2038
3.42399
2064
3.42397
2092
3.42395
2082
3.42392
2117
3.4239
2155
3.42387
2222
3.42385
2210
3.42383
2274
3.4238
2300
3.42378
2374
3.42375
2465
3.42373
2404
3.42371
2504
3.42368
2583
3.42366
2624
3.42364
2607
3.42361
2597
3.42359
2697
3.42356
2760
3.42354
2815
3.42352
2927
3.42349
3003
3.42347
3098
3.42344
3073
3.42342
3178
3.4234
3385
3.42337
3433
3.42335
3508
3.42333
3531
3.4233
3632
3.42328
3842
3.42325
3885
3.42323
4114
3.42321
4303
3.42318
4376
3.42316
4465
3.42313
4651
3.42311
4713
3.42309
4960
3.42306
5112
3.42304
5260
3.42301
5561
3.42299
5609
3.42297
5821
3.42294
6133
3.42292
6130
3.4229
6323
3.42287
6449
3.42285
6618
3.42282
6688
3.4228
6896
3.42278
7081
3.42275
7131
3.42273
7154
3.4227
7218
3.42268
7181
3.42266
7172
3.42263
7128
3.42261
7144
3.42259
6943
3.42256
6899
3.42254
6745
3.42251
6735
3.42249
6619
3.42247
6286
3.42244
5983
3.42242
5800
3.42239
5475
3.42237
5179
3.42235
5031
3.42232
4813
3.4223
4447
3.42228
4257
3.42225
3975
3.42223
3750
3.4222
3530
3.42218
3262
3.42216
3044
3.42213
2870
3.42211
2727
3.42208
2576
3.42206
2470
3.42204
2306
3.42201
2227
3.42199
2049
3.42196
1931
3.42194
1848
3.42192
1776
3.42189
1636
3.42187
1660
3.42185
1620
3.42182
1523
3.4218
1447
3.42177
1398
3.42175
1406
3.42173
1354
3.4217
1265
3.42168
1249
3.42165
1238
3.42163
1192
3.42161
1193
3.42158
1194
3.42156
1145
3.42154
1106
3.42151
1165
3.42149
1157
3.42146
1155
3.42144
1088
3.42142
1030
3.42139
1071
3.42137
1072
3.42134
1074
3.42132
1072
3.4213
1067
3.42127
1063
3.42125
1076
3.42123
1004
3.4212
987
3.42118
981
3.42115
1020
3.42113
986
3.42111
977
3.42108
995
3.42106
982
3.42103
1001
3.42101
971
3.42099
974
3.42096
1011
3.42094
997
3.42091
964
3.42089
1006
3.42087
984
3.42084
976
3.42082
977
3.4208
952
3.42077
950
3.42075
946
3.42072
935
3.4207
963
3.42068
948
3.42065
965
3.42063
962
3.4206
918
3.42058
941
3.42056
995
3.42053
982
3.42051
965
3.42049
944
3.42046
986
3.42044
928
3.42041
956
3.42039
931
3.42037
962
3.42034
962
3.42032
930
3.42029
947
3.42027
950
3.42025
908
3.42022
951
3.4202
915
3.42018
921
3.42015
969
3.42013
973
3.4201
910
3.42008
947
3.42006
946
3.42003
913
3.42001
893
3.41998
908
3.41996
972
3.41994
958
3.41991
921
3.41989
922
3.41986
965
3.41984
979
3.41982
926
3.41979
948
3.41977
919
3.41975
940
3.41972
945
3.4197
953
3.41967
937
3.41965
926
3.41963
943
3.4196
920
3.41958
932
3.41955
971
3.41953
954
3.41951
894
3.41948
967
3.41946
973
3.41944
957
3.41941
968
3.41939
919
3.41936
959
3.41934
993
3.41932
956
3.41929
884
3.41927
970
3.41924
940
3.41922
951
3.4192
917
3.41917
935
3.41915
972
3.41913
989
3.4191
913
3.41908
908
3.41905
964
3.41903
951
3.41901
856
3.41898
868
3.41896
883
3.41893
933
3.41891
909
3.41889
906
3.41886
938
3.41884
965
3.41881
942
3.41879
976
3.41877
894
3.41874
937
3.41872
915
3.4187
875
3.41867
938
3.41865
937
3.41862
928
3.4186
971
3.41858
941
3.41855
933
3.41853
958
3.4185
950
3.41848
950
3.41846
924
3.41843
963
3.41841
1015
3.41839
929
3.41836
953
3.41834
909
3.41831
908
3.41829
928
3.41827
909
3.41824
963
3.41822
946
3.41819
909
3.41817
956
3.41815
960
3.41812
928
3.4181
936
3.41808
908
3.41805
890
3.41803
951
3.418
903
3.41798
937
3.41796
942
3.41793
918
3.4179
918
3.41786
959
3.41781
907
3.41777
931
3.41773
954
3.41769
909
3.41765
874
3.41761
911
3.41757
934
3.41753
910
3.41748
872
3.41744
891
3.4174
962
3.41736
935
3.41732
933
3.41728
942
3.41724
O 1s/6
Not Specified
2017
7
4
12
47
15
0
9
Casa Info Follows
1
Calib M = 283.291 A = 284.6 BE ADD
0
0
0
   XPS     Spectrum    Lens Mode:Hybrid   Resolution:Pass energy 40    Iris(Aper):slot(Slot)
   Acqn. Time(s): 162        Sweeps: 3        Anode:Mono(Al (Mono))(150 W)   Step(meV): 50.0  
   Dwell Time(ms): 150        Charge Neutraliser :On   Acquired On :17/07/04 12:47:15
XPS
68
-2
0
Mono(Al (Mono))
1486.69
150
1e+037
1e+037
6000
6000
1e+037
1e+037
FAT
40
1e+037
-4.45
0
1e+037
1e+037
1e+037
1e+037
O
1s
-1
Kinetic Energy
eV
946.69
0.05
2
Intensity
d
Transmission
d
pulse counting
0.15
3
0
1e+037
1e+037
1e+037
0
722
611
5145
3.32569
3.34183
943
3.34183
838
3.34178
861
3.34174
874
3.34169
904
3.34165
854
3.3416
906
3.34156
888
3.34151
925
3.34147
928
3.34142
911
3.34138
918
3.34133
893
3.34129
908
3.34124
892
3.3412
877
3.34115
878
3.34111
865
3.34107
831
3.34102
907
3.34098
842
3.34093
897
3.34089
880
3.34084
903
3.3408
870
3.34075
851
3.34071
837
3.34066
839
3.34062
821
3.34057
886
3.34053
946
3.34048
886
3.34044
850
3.34039
877
3.34035
844
3.3403
908
3.34026
873
3.34021
867
3.34017
859
3.34012
849
3.34008
810
3.34003
890
3.33999
865
3.33994
871
3.3399
831
3.33985
899
3.33981
876
3.33976
863
3.33972
882
3.33968
869
3.33963
882
3.33959
895
3.33954
870
3.3395
874
3.33945
894
3.33941
875
3.33936
898
3.33932
837
3.33927
898
3.33923
869
3.33918
942
3.33914
931
3.33909
897
3.33905
927
3.339
914
3.33896
914
3.33891
892
3.33887
999
3.33882
956
3.33878
919
3.33873
963
3.33869
1018
3.33864
990
3.3386
1028
3.33855
1033
3.33851
1064
3.33846
1086
3.33842
1082
3.33837
1064
3.33833
1106
3.33829
1117
3.33824
1133
3.3382
1216
3.33815
1218
3.33811
1191
3.33806
1149
3.33802
1198
3.33797
1211
3.33793
1236
3.33788
1268
3.33784
1295
3.33779
1358
3.33775
1355
3.3377
1334
3.33766
1346
3.33761
1348
3.33757
1384
3.33752
1345
3.33748
1397
3.33743
1475
3.33739
1536
3.33734
1475
3.3373
1463
3.33725
1586
3.33721
1530
3.33716
1519
3.33712
1518
3.33707
1597
3.33703
1587
3.33698
1594
3.33694
1637
3.3369
1633
3.33685
1669
3.33681
1677
3.33676
1671
3.33672
1679
3.33667
1633
3.33663
1639
3.33658
1678
3.33654
1743
3.33649
1763
3.33645
1740
3.3364
1811
3.33636
1846
3.33631
1910
3.33627
1845
3.33622
1862
3.33618
1906
3.33613
1925
3.33609
1938
3.33604
2034
3.336
2060
3.33595
2067
3.33591
2084
3.33586
2122
3.33582
2141
3.33577
2236
3.33573
2279
3.33568
2272
3.33564
2367
3.3356
2400
3.33555
2489
3.33551
2495
3.33546
2554
3.33542
2677
3.33537
2715
3.33533
2686
3.33528
2808
3.33524
2896
3.33519
2993
3.33515
3061
3.3351
3186
3.33506
3179
3.33501
3262
3.33497
3401
3.33492
3517
3.33488
3538
3.33483
3736
3.33479
3800
3.33474
3916
3.3347
4006
3.33465
4065
3.33461
4215
3.33456
4325
3.33452
4411
3.33447
4432
3.33443
4567
3.33438
4729
3.33434
4648
3.33429
4793
3.33425
4829
3.33421
4937
3.33416
5002
3.33412
5089
3.33407
5145
3.33403
5089
3.33398
5031
3.33394
5082
3.33389
4984
3.33385
4944
3.3338
4920
3.33376
4904
3.33371
4837
3.33367
4808
3.33362
4667
3.33358
4673
3.33353
4492
3.33349
4252
3.33344
4276
3.3334
4162
3.33335
4085
3.33331
3961
3.33326
3921
3.33322
3734
3.33317
3605
3.33313
3399
3.33308
3341
3.33304
3178
3.33299
3094
3.33295
2929
3.3329
2886
3.33286
2782
3.33282
2733
3.33277
2598
3.33273
2458
3.33268
2383
3.33264
2219
3.33259
2154
3.33255
2067
3.3325
2065
3.33246
1949
3.33241
1826
3.33237
1725
3.33232
1742
3.33228
1595
3.33223
1543
3.33219
1500
3.33214
1403
3.3321
1360
3.33205
1264
3.33201
1214
3.33196
1212
3.33192
1137
3.33187
1117
3.33183
1097
3.33178
1053
3.33174
1012
3.33169
1006
3.33165
948
3.3316
923
3.33156
868
3.33151
829
3.33147
838
3.33143
820
3.33138
799
3.33134
775
3.33129
762
3.33125
760
3.3312
721
3.33116
738
3.33111
774
3.33107
759
3.33102
808
3.33098
730
3.33093
696
3.33089
781
3.33084
728
3.3308
661
3.33075
718
3.33071
709
3.33066
708
3.33062
682
3.33057
750
3.33053
718
3.33048
686
3.33044
697
3.33039
653
3.33035
734
3.3303
699
3.33026
680
3.33021
704
3.33017
717
3.33012
668
3.33008
696
3.33004
684
3.32999
657
3.32995
658
3.3299
701
3.32986
663
3.32981
697
3.32977
681
3.32972
665
3.32968
637
3.32963
649
3.32959
667
3.32954
648
3.3295
681
3.32945
683
3.32941
721
3.32936
681
3.32932
674
3.32927
665
3.32923
703
3.32918
665
3.32914
677
3.32909
662
3.32905
690
3.329
690
3.32896
655
3.32891
686
3.32887
691
3.32882
688
3.32878
694
3.32873
684
3.32869
673
3.32865
670
3.3286
653
3.32856
653
3.32851
649
3.32847
687
3.32842
729
3.32838
676
3.32833
677
3.32829
632
3.32824
668
3.3282
647
3.32815
641
3.32811
657
3.32806
648
3.32802
655
3.32797
675
3.32793
688
3.32788
681
3.32784
687
3.32779
611
3.32775
693
3.3277
675
3.32766
687
3.32761
708
3.32757
659
3.32752
659
3.32748
635
3.32743
662
3.32739
637
3.32735
634
3.3273
668
3.32726
676
3.32721
666
3.32717
644
3.32712
631
3.32708
649
3.32703
700
3.32699
682
3.32694
713
3.3269
728
3.32685
657
3.32681
706
3.32676
688
3.32672
714
3.32667
660
3.32663
686
3.32658
707
3.32654
686
3.32649
721
3.32645
662
3.3264
663
3.32636
656
3.32631
673
3.32627
724
3.32622
667
3.32618
686
3.32613
696
3.32609
683
3.32604
677
3.326
651
3.32596
662
3.32591
637
3.32587
673
3.32582
656
3.32578
656
3.32573
680
3.32569
C 1s/7
Not Specified
2017
7
4
12
47
15
0
9
Casa Info Follows
1
Calib M = 283.291 A = 284.6 BE ADD
0
0
0
   XPS     Spectrum    Lens Mode:Hybrid   Resolution:Pass energy 40    Iris(Aper):slot(Slot)
   Acqn. Time(s): 138        Sweeps: 2        Anode:Mono(Al (Mono))(150 W)   Step(meV): 50.0  
   Dwell Time(ms): 150        Charge Neutraliser :On   Acquired On :17/07/04 12:47:15
XPS
68
-2
0
Mono(Al (Mono))
1486.69
150
1e+037
1e+037
6000
6000
1e+037
1e+037
FAT
40
1e+037
-4.45
0
1e+037
1e+037
1e+037
1e+037
C
1s
-1
Kinetic Energy
eV
1190.19
0.05
2
Intensity
d
Transmission
d
pulse counting
0.15
2
0
1e+037
1e+037
1e+037
0
922
64
2206
3.16755
3.19198
301
3.16755
293
3.1676
268
3.16765
269
3.16771
260
3.16776
246
3.16781
247
3.16787
258
3.16792
289
3.16797
273
3.16802
283
3.16808
268
3.16813
264
3.16818
282
3.16824
247
3.16829
280
3.16834
264
3.1684
250
3.16845
273
3.1685
267
3.16856
247
3.16861
262
3.16866
267
3.16871
262
3.16877
252
3.16882
263
3.16887
253
3.16893
247
3.16898
294
3.16903
262
3.16909
254
3.16914
256
3.16919
246
3.16925
264
3.1693
260
3.16935
252
3.16941
235
3.16946
268
3.16951
269
3.16956
242
3.16962
235
3.16967
261
3.16972
263
3.16978
270
3.16983
258
3.16988
268
3.16994
238
3.16999
240
3.17004
226
3.1701
238
3.17015
260
3.1702
262
3.17025
277
3.17031
243
3.17036
258
3.17041
257
3.17047
243
3.17052
258
3.17057
275
3.17063
235
3.17068
251
3.17073
254
3.17079
270
3.17084
251
3.17089
270
3.17095
281
3.171
275
3.17105
306
3.1711
297
3.17116
312
3.17121
286
3.17126
310
3.17132
295
3.17137
350
3.17142
345
3.17148
343
3.17153
316
3.17158
370
3.17164
361
3.17169
344
3.17174
379
3.17179
375
3.17185
372
3.1719
395
3.17195
364
3.17201
380
3.17206
368
3.17211
373
3.17217
396
3.17222
432
3.17227
410
3.17233
387
3.17238
387
3.17243
411
3.17249
415
3.17254
388
3.17259
431
3.17264
404
3.1727
425
3.17275
432
3.1728
457
3.17286
419
3.17291
444
3.17296
448
3.17302
439
3.17307
418
3.17312
458
3.17318
451
3.17323
475
3.17328
505
3.17334
481
3.17339
523
3.17344
524
3.17349
493
3.17355
500
3.1736
509
3.17365
502
3.17371
546
3.17376
552
3.17381
593
3.17387
593
3.17392
572
3.17397
601
3.17403
626
3.17408
644
3.17413
636
3.17418
654
3.17424
735
3.17429
698
3.17434
704
3.1744
755
3.17445
796
3.1745
834
3.17456
816
3.17461
869
3.17466
894
3.17472
870
3.17477
949
3.17482
919
3.17488
963
3.17493
1019
3.17498
1087
3.17503
1019
3.17509
1053
3.17514
1061
3.17519
1131
3.17525
1198
3.1753
1154
3.17535
1222
3.17541
1236
3.17546
1306
3.17551
1274
3.17557
1315
3.17562
1321
3.17567
1403
3.17572
1404
3.17578
1440
3.17583
1501
3.17588
1600
3.17594
1600
3.17599
1656
3.17604
1774
3.1761
1732
3.17615
1830
3.1762
1895
3.17626
1913
3.17631
1904
3.17636
2001
3.17642
2081
3.17647
2124
3.17652
2148
3.17657
2206
3.17663
2158
3.17668
2159
3.17673
2179
3.17679
2157
3.17684
2106
3.17689
2041
3.17695
1999
3.177
1944
3.17705
1853
3.17711
1849
3.17716
1793
3.17721
1712
3.17726
1646
3.17732
1564
3.17737
1512
3.17742
1405
3.17748
1414
3.17753
1399
3.17758
1339
3.17764
1289
3.17769
1294
3.17774
1281
3.1778
1323
3.17785
1236
3.1779
1227
3.17796
1220
3.17801
1282
3.17806
1244
3.17811
1272
3.17817
1244
3.17822
1250
3.17827
1259
3.17833
1286
3.17838
1276
3.17843
1286
3.17849
1326
3.17854
1335
3.17859
1412
3.17865
1459
3.1787
1471
3.17875
1436
3.17881
1511
3.17886
1555
3.17891
1545
3.17896
1575
3.17902
1628
3.17907
1644
3.17912
1686
3.17918
1709
3.17923
1651
3.17928
1671
3.17934
1682
3.17939
1692
3.17944
1623
3.1795
1650
3.17955
1680
3.1796
1626
3.17965
1585
3.17971
1512
3.17976
1466
3.17981
1425
3.17987
1396
3.17992
1361
3.17997
1327
3.18003
1329
3.18008
1291
3.18013
1240
3.18019
1207
3.18024
1144
3.18029
1107
3.18035
1104
3.1804
1079
3.18045
1080
3.1805
1050
3.18056
1045
3.18061
1017
3.18066
1058
3.18072
1055
3.18077
1047
3.18082
1092
3.18088
1089
3.18093
1072
3.18098
1067
3.18104
1051
3.18109
1057
3.18114
1099
3.1812
1066
3.18125
1047
3.1813
1096
3.18135
1116
3.18141
1070
3.18146
1160
3.18151
1094
3.18157
1078
3.18162
1073
3.18167
1126
3.18173
1088
3.18178
1103
3.18183
1043
3.18189
964
3.18194
926
3.18199
932
3.18204
903
3.1821
892
3.18215
839
3.1822
835
3.18226
777
3.18231
720
3.18236
699
3.18242
660
3.18247
633
3.18252
576
3.18258
546
3.18263
512
3.18268
506
3.18274
492
3.18279
452
3.18284
418
3.18289
384
3.18295
344
3.183
320
3.18305
291
3.18311
257
3.18316
240
3.18321
224
3.18327
220
3.18332
199
3.18337
188
3.18343
178
3.18348
168
3.18353
154
3.18358
135
3.18364
133
3.18369
120
3.18374
134
3.1838
122
3.18385
111
3.1839
99
3.18396
115
3.18401
93
3.18406
114
3.18412
90
3.18417
108
3.18422
92
3.18428
111
3.18433
96
3.18438
92
3.18443
109
3.18449
102
3.18454
83
3.18459
92
3.18465
86
3.1847
102
3.18475
96
3.18481
68
3.18486
87
3.18491
91
3.18497
88
3.18502
96
3.18507
102
3.18512
85
3.18518
86
3.18523
84
3.18528
88
3.18534
97
3.18539
88
3.18544
107
3.1855
79
3.18555
90
3.1856
98
3.18566
88
3.18571
92
3.18576
85
3.18582
85
3.18587
86
3.18592
74
3.18597
91
3.18603
79
3.18608
83
3.18613
87
3.18619
85
3.18624
88
3.18629
85
3.18635
68
3.1864
81
3.18645
96
3.18651
92
3.18656
81
3.18661
86
3.18667
90
3.18672
79
3.18677
86
3.18682
77
3.18688
99
3.18693
80
3.18698
87
3.18704
81
3.18709
84
3.18714
95
3.1872
79
3.18725
95
3.1873
91
3.18736
88
3.18741
79
3.18746
70
3.18751
73
3.18757
83
3.18762
75
3.18767
85
3.18773
97
3.18778
82
3.18783
81
3.18789
73
3.18794
88
3.18799
105
3.18805
70
3.1881
70
3.18815
89
3.18821
94
3.18826
88
3.18831
95
3.18836
88
3.18842
88
3.18847
64
3.18852
81
3.18858
74
3.18863
72
3.18868
79
3.18874
95
3.18879
84
3.18884
87
3.1889
85
3.18895
88
3.189
94
3.18905
76
3.18911
69
3.18916
86
3.18921
93
3.18927
81
3.18932
77
3.18937
88
3.18943
85
3.18948
76
3.18953
82
3.18959
89
3.18964
76
3.18969
92
3.18975
94
3.1898
85
3.18985
71
3.1899
82
3.18996
74
3.19001
75
3.19006
89
3.19012
86
3.19017
87
3.19022
95
3.19028
86
3.19033
86
3.19038
86
3.19044
72
3.19049
83
3.19054
88
3.19059
88
3.19065
85
3.1907
95
3.19075
99
3.19081
80
3.19086
83
3.19091
84
3.19097
91
3.19102
90
3.19107
89
3.19113
82
3.19118
87
3.19123
77
3.19129
87
3.19134
88
3.19139
89
3.19144
83
3.1915
76
3.19155
76
3.1916
91
3.19166
69
3.19171
85
3.19176
67
3.19182
91
3.19187
84
3.19192
83
3.19198
end of experiment
