VAMAS Surface Chemical Analysis Standard Data Transfer Format 1988 May 4
Not Specified
Kratos Axis
Not Specified
/d=/data/20170705/2017006144/A3.dset
3
Casa Info Follows
0
SourceAnalyserAngle: Not Specified
MAP
REGULAR
4
2
32768
32768
1
Etch Time
s
0
0
0
0
4
wide/2
Not Specified
2017
7
4
10
49
38
0
21
Casa Info Follows
1
Calib M = 283.183 A = 284.6 BE ADD
6
annot text peak Data 1197.27 2850 RGB(0,0,0) Font(14,18,0,0,Times New Roman) Vertical
C 1s
annot text peak Data 505 2437 RGB(0,0,0) Font(14,18,0,0,Times New Roman) Vertical
O KLL
annot text peak Data 954.273 1654 RGB(0,0,0) Font(14,18,0,0,Times New Roman) Vertical
O 1s
annot text peak Data 642 2165 RGB(0,0,0) Font(14,18,0,0,Times New Roman) Vertical
F KLL
annot text peak Data 798.273 10167 RGB(0,0,0) Font(14,18,0,0,Times New Roman) Vertical
F 1s
annot text peak Data 1453.27 385 RGB(0,0,0) Font(14,18,0,0,Times New Roman) Vertical
F 2s
0
0
   XPS     Spectrum    Lens Mode:Hybrid   Resolution:Pass energy 80    Iris(Aper):slot(Slot)
   Acqn. Time(s): 110        Sweeps: 1        Anode:Mono(Al (Mono))(150 W)   Step(meV): 1000.0
   Dwell Time(ms): 100        Charge Neutraliser :On   Acquired On :17/07/04 10:49:38
XPS
77
-3
0
Mono(Al (Mono))
1486.69
150
1e+037
1e+037
6000
6000
1e+037
1e+037
FAT
80
1e+037
-4.45
0
1e+037
1e+037
1e+037
1e+037
Wide
None
-1
Kinetic Energy
eV
386.69
1
2
Intensity
d
Transmission
d
pulse counting
0.1
1
0
1e+037
1e+037
1e+037
0
2202
4
10167
8.48115
10.2364
2045
10.2364
2017
10.2286
2112
10.2207
2083
10.2129
2123
10.2051
2128
10.1972
2126
10.1894
2073
10.1815
2073
10.1737
2126
10.1658
2148
10.158
2101
10.1502
2167
10.1423
2169
10.1345
2124
10.1266
2134
10.1188
2138
10.1109
2151
10.1031
2087
10.0953
2115
10.0874
2104
10.0796
2099
10.0717
2102
10.0639
2173
10.056
2080
10.0492
2108
10.0427
2122
10.0362
2114
10.0296
2115
10.0231
2156
10.0166
2114
10.0101
2187
10.0035
2144
9.997
2135
9.99047
2079
9.98395
2122
9.97742
2107
9.97089
2151
9.96436
2153
9.95784
2128
9.95131
2160
9.94478
2172
9.93825
2154
9.93173
2145
9.9252
2105
9.91867
2099
9.91215
2202
9.90562
2128
9.89909
2184
9.89256
2217
9.88604
2179
9.87951
2128
9.87298
2135
9.86645
2178
9.85993
2178
9.8534
2170
9.84687
2155
9.84034
2168
9.83382
2195
9.82729
2215
9.82076
2211
9.81423
2228
9.80771
2214
9.80118
2239
9.79465
2233
9.78813
2280
9.7816
2235
9.77507
2210
9.76854
2278
9.76202
2298
9.75549
2302
9.74896
2251
9.74243
2203
9.73591
2221
9.72938
2212
9.72439
2250
9.71983
2243
9.71527
2250
9.71071
2231
9.70615
2253
9.7016
2284
9.69704
2231
9.69248
2228
9.68792
2214
9.68336
2252
9.67881
2163
9.67425
2235
9.66969
2302
9.66513
2238
9.66057
2215
9.65602
2282
9.65146
2264
9.6469
2246
9.64234
2302
9.63778
2297
9.63322
2306
9.62867
2348
9.62411
2305
9.61955
2269
9.61499
2334
9.61043
2353
9.60588
2335
9.60132
2318
9.59676
2354
9.5922
2367
9.58764
2340
9.58309
2327
9.57853
2310
9.57397
2243
9.56941
2328
9.56485
2398
9.56029
2275
9.55574
2332
9.55118
2292
9.54662
2287
9.54206
2298
9.5375
2290
9.53294
2309
9.52839
2352
9.52383
2437
9.51927
2388
9.51471
2374
9.51015
2369
9.5056
2327
9.50104
2435
9.4966
2453
9.49219
2484
9.48778
2359
9.48337
2412
9.47896
2377
9.47455
2378
9.47014
2333
9.46573
2334
9.46132
2310
9.45691
2200
9.45251
2174
9.4481
2185
9.44369
2198
9.43928
2211
9.43487
2173
9.43046
2184
9.42605
2251
9.42164
2198
9.41723
2238
9.41282
2191
9.40841
2185
9.40401
2169
9.3996
2207
9.39519
2200
9.39078
2212
9.38637
2208
9.38196
2177
9.37755
2172
9.37314
2182
9.36873
2222
9.36432
2198
9.35992
2178
9.35551
2195
9.3511
2234
9.34669
2217
9.34228
2189
9.33787
2199
9.33346
2227
9.32905
2235
9.32464
2234
9.32023
2201
9.31583
2237
9.31142
2256
9.30701
2217
9.3026
2255
9.29819
2192
9.29378
2215
9.28937
2257
9.28496
2328
9.28055
2204
9.27708
2242
9.27386
2243
9.27065
2183
9.26744
2280
9.26422
2324
9.26101
2243
9.2578
2319
9.25458
2282
9.25137
2279
9.24816
2255
9.24494
2341
9.24173
2255
9.23852
2229
9.2353
2273
9.23209
2360
9.22888
2249
9.22566
2239
9.22245
2278
9.21924
2285
9.21602
2295
9.21281
2275
9.2096
2254
9.20638
2317
9.20317
2309
9.19996
2292
9.19674
2300
9.19353
2359
9.19032
2391
9.1871
2327
9.18389
2372
9.18068
2310
9.17746
2364
9.17425
2319
9.17104
2343
9.16782
2322
9.16461
2384
9.1614
2420
9.15818
2359
9.15497
2362
9.15176
2406
9.14854
2429
9.14533
2405
9.14212
2434
9.1389
2544
9.13569
2490
9.13247
2489
9.12926
2549
9.12605
2542
9.12284
2561
9.11962
2536
9.11731
2471
9.11525
2409
9.11319
2344
9.11112
2426
9.10906
2396
9.107
2342
9.10494
2395
9.10288
2421
9.10082
2426
9.09876
2418
9.0967
2408
9.09464
2473
9.09258
2563
9.09052
2694
9.08845
2763
9.08639
2788
9.08433
2847
9.08227
2799
9.08021
2853
9.07815
2750
9.07609
2702
9.07403
2602
9.07197
2632
9.06991
2607
9.06785
2526
9.06578
2502
9.06372
2443
9.06166
2315
9.0596
2241
9.05754
2179
9.05548
2144
9.05342
2165
9.05136
2102
9.0493
2161
9.04724
2188
9.04518
2253
9.04311
2327
9.04105
2370
9.03899
2512
9.03693
2835
9.03487
3181
9.03281
3420
9.03075
3688
9.02869
3980
9.02663
3934
9.02457
3700
9.0225
3378
9.02044
3118
9.01838
2884
9.01632
2597
9.01335
2460
9.01012
2259
9.0069
2126
9.00367
2030
9.00044
1859
8.99721
1822
8.99398
1683
8.99076
1548
8.98753
1551
8.9843
1488
8.98107
1504
8.97784
1435
8.97462
1459
8.97139
1435
8.96816
1499
8.96493
1492
8.9617
1483
8.95848
1443
8.95525
1434
8.95202
1444
8.94879
1474
8.94556
1476
8.94234
1446
8.93911
1416
8.93588
1461
8.93265
1483
8.92942
1460
8.9262
1417
8.92297
1451
8.91974
1463
8.91651
1490
8.91328
1465
8.91006
1433
8.90683
1476
8.9036
1487
8.90037
1454
8.89714
1456
8.89392
1449
8.89069
1472
8.88746
1459
8.88483
1416
8.88236
1466
8.8799
1463
8.87743
1459
8.87497
1448
8.87251
1429
8.87004
1467
8.86758
1440
8.86511
1420
8.86265
1493
8.86019
1474
8.85772
1464
8.85526
1494
8.85279
1453
8.85033
1480
8.84786
1470
8.8454
1476
8.84294
1464
8.84047
1475
8.83801
1461
8.83554
1442
8.83308
1529
8.83062
1466
8.82815
1498
8.82569
1542
8.82322
1545
8.82076
1448
8.81829
1434
8.81583
1506
8.81337
1474
8.8109
1494
8.80844
1521
8.80597
1530
8.80351
1500
8.80104
1483
8.79858
1515
8.79612
1525
8.79365
1508
8.79119
1539
8.78872
1551
8.78626
1516
8.7838
1530
8.78133
1519
8.77887
1538
8.7764
1503
8.77394
1476
8.77147
1492
8.76901
1476
8.76655
1436
8.76408
1489
8.76162
1480
8.75915
1488
8.75669
1498
8.75422
1474
8.75176
1485
8.7493
1466
8.74683
1456
8.74437
1453
8.7419
1465
8.73944
1489
8.73885
1540
8.73879
1559
8.73873
1524
8.73867
1578
8.73861
1662
8.73855
1670
8.73849
1657
8.73843
1617
8.73837
1617
8.73831
1590
8.73825
1613
8.73819
1592
8.73813
1580
8.73806
1576
8.738
1587
8.73794
1545
8.73788
1508
8.73782
1487
8.73776
1469
8.7377
1432
8.73764
1393
8.73758
1288
8.73752
1226
8.73746
1194
8.7374
1100
8.73734
1083
8.73728
1072
8.73722
1005
8.73716
904
8.7371
819
8.73704
824
8.73698
739
8.73692
733
8.73686
822
8.7368
957
8.73674
1360
8.73668
2583
8.73662
5701
8.73655
10167
8.73649
9401
8.73643
3754
8.73637
1146
8.73631
706
8.73625
642
8.73619
563
8.73613
573
8.73607
578
8.73601
530
8.73595
541
8.73589
521
8.73468
525
8.73314
563
8.73161
551
8.73007
544
8.72854
555
8.727
544
8.72547
558
8.72393
532
8.7224
499
8.72086
540
8.71933
561
8.71779
536
8.71626
550
8.71472
532
8.71319
513
8.71165
526
8.71012
551
8.70858
541
8.70705
557
8.70551
500
8.70398
533
8.70244
506
8.70091
518
8.69937
551
8.69784
548
8.6963
537
8.69477
585
8.69323
570
8.6917
532
8.69016
565
8.68863
577
8.68709
557
8.68556
590
8.68402
550
8.68249
561
8.68095
559
8.67942
570
8.67788
569
8.67635
546
8.67481
538
8.67328
548
8.67174
578
8.67021
590
8.66867
540
8.66714
525
8.6656
540
8.66407
577
8.66253
543
8.661
550
8.65946
568
8.65793
538
8.65639
576
8.65486
551
8.65332
591
8.65179
545
8.65025
566
8.64872
560
8.64718
553
8.64565
529
8.64411
571
8.64417
540
8.64468
549
8.64518
571
8.64569
577
8.6462
535
8.6467
530
8.64721
545
8.64772
535
8.64822
546
8.64873
586
8.64924
542
8.64974
549
8.65025
589
8.65075
555
8.65126
556
8.65177
624
8.65228
567
8.65278
577
8.65329
600
8.65379
615
8.6543
601
8.65481
571
8.65531
574
8.65582
606
8.65633
608
8.65683
548
8.65734
570
8.65785
587
8.65835
570
8.65886
564
8.65937
589
8.65987
566
8.66038
575
8.66089
599
8.66139
556
8.6619
576
8.66241
626
8.66291
593
8.66342
585
8.66393
569
8.66317
558
8.66206
587
8.66095
594
8.65984
596
8.65872
582
8.65761
586
8.6565
588
8.65539
524
8.65428
572
8.65317
591
8.65206
613
8.65094
648
8.64983
631
8.64872
611
8.64761
615
8.6465
589
8.64539
582
8.64428
613
8.64317
643
8.64205
627
8.64094
614
8.63983
660
8.63872
638
8.63761
631
8.6365
581
8.63539
574
8.63427
574
8.63316
587
8.63205
560
8.63094
548
8.62983
524
8.62872
533
8.62761
514
8.6265
481
8.62538
493
8.62427
470
8.62316
474
8.62205
480
8.62094
510
8.61983
508
8.61872
543
8.6176
614
8.61649
918
8.61538
1334
8.61427
1654
8.61316
1341
8.61205
818
8.61094
526
8.60983
428
8.60871
434
8.6076
424
8.60649
437
8.60538
426
8.60427
383
8.60316
389
8.60205
416
8.60093
427
8.59982
415
8.59871
436
8.5976
429
8.59692
411
8.59635
425
8.59579
373
8.59522
430
8.59466
424
8.5941
397
8.59353
408
8.59297
410
8.5924
457
8.59184
433
8.59128
418
8.59071
408
8.59015
421
8.58958
412
8.58902
459
8.58846
423
8.58789
420
8.58733
428
8.58676
447
8.5862
423
8.58564
417
8.58507
438
8.58451
449
8.58394
404
8.58338
402
8.58282
432
8.58225
438
8.58169
418
8.58112
417
8.58056
450
8.58
464
8.57943
428
8.57887
433
8.5783
457
8.57774
427
8.57718
426
8.57661
468
8.57605
466
8.57548
423
8.57492
434
8.57413
438
8.57328
444
8.57243
441
8.57158
448
8.57074
449
8.56989
459
8.56904
446
8.56819
433
8.56734
476
8.56649
452
8.56564
452
8.56479
463
8.56394
453
8.56309
451
8.56224
471
8.56139
466
8.56055
454
8.5597
442
8.55885
444
8.558
461
8.55715
431
8.5563
414
8.55545
469
8.5546
421
8.55375
447
8.5529
446
8.55205
410
8.5512
447
8.55035
439
8.54951
437
8.54866
457
8.54781
452
8.54696
447
8.54611
443
8.54526
422
8.54441
437
8.54356
462
8.54271
474
8.54186
453
8.54101
447
8.54016
464
8.53932
483
8.53847
511
8.53762
441
8.53677
409
8.53592
441
8.53507
477
8.53422
461
8.53337
466
8.53252
475
8.5335
466
8.535
446
8.5365
464
8.538
444
8.5395
440
8.541
508
8.5425
467
8.544
472
8.5455
460
8.547
518
8.5485
481
8.55
473
8.5515
477
8.553
475
8.5545
450
8.556
459
8.5575
462
8.55899
480
8.56049
481
8.56199
492
8.56349
456
8.56499
486
8.56649
489
8.56799
515
8.56949
532
8.57099
498
8.57249
495
8.57399
490
8.57549
475
8.57699
487
8.57849
516
8.57999
458
8.58149
453
8.58298
476
8.58448
451
8.58598
496
8.58748
487
8.58898
503
8.59048
466
8.59198
464
8.59135
441
8.59011
497
8.58887
491
8.58763
474
8.58639
488
8.58515
497
8.58392
460
8.58268
465
8.58144
461
8.5802
484
8.57896
464
8.57773
478
8.57649
499
8.57525
463
8.57401
489
8.57277
529
8.57154
515
8.5703
511
8.56906
535
8.56782
534
8.56658
486
8.56534
465
8.56411
469
8.56287
482
8.56163
489
8.56039
514
8.55915
525
8.55792
538
8.55668
512
8.55544
507
8.5542
497
8.55296
461
8.55173
495
8.55049
509
8.54925
519
8.54801
536
8.54677
519
8.54553
530
8.5443
506
8.54306
466
8.54182
488
8.54058
470
8.53934
501
8.53811
536
8.53687
536
8.53563
509
8.53439
527
8.53315
507
8.53191
504
8.53068
506
8.52944
502
8.5282
519
8.52696
520
8.52572
513
8.52449
512
8.52325
519
8.52201
537
8.52077
513
8.51953
516
8.5183
530
8.51706
584
8.51582
547
8.51458
540
8.51334
546
8.5121
599
8.51087
597
8.50963
565
8.50839
567
8.50715
575
8.50591
589
8.50468
562
8.50344
597
8.5022
567
8.50096
573
8.49972
546
8.49849
547
8.49725
531
8.49601
510
8.49477
476
8.49353
501
8.49229
445
8.49106
449
8.48982
424
8.48858
409
8.48734
395
8.4861
379
8.48487
340
8.48363
317
8.48239
284
8.48115
234
8.4832
246
8.48617
237
8.48914
229
8.49212
293
8.49509
448
8.49806
849
8.50104
1606
8.50401
2850
8.50698
2405
8.50995
1101
8.51293
916
8.5159
856
8.51887
768
8.52185
487
8.52482
198
8.52779
121
8.53077
106
8.53374
111
8.53671
85
8.53969
96
8.54266
104
8.54563
112
8.5486
91
8.55158
98
8.55455
102
8.55752
113
8.5605
98
8.56347
100
8.56644
85
8.56942
96
8.57239
84
8.57536
86
8.57833
78
8.58131
94
8.58428
108
8.58725
90
8.59023
104
8.5932
97
8.59617
81
8.59915
91
8.60212
92
8.60509
81
8.60806
96
8.61104
116
8.61401
96
8.61698
83
8.61996
86
8.62293
105
8.6259
99
8.62888
85
8.63012
72
8.63087
78
8.63163
90
8.63238
96
8.63314
89
8.63389
101
8.63465
91
8.6354
69
8.63616
89
8.63691
94
8.63767
91
8.63842
93
8.63918
104
8.63993
113
8.64069
114
8.64144
103
8.64219
100
8.64295
99
8.6437
102
8.64446
86
8.64521
76
8.64597
118
8.64672
107
8.64748
97
8.64823
101
8.64899
97
8.64974
78
8.6505
88
8.65125
85
8.65201
94
8.65276
78
8.65352
99
8.65427
109
8.65503
105
8.65578
82
8.65654
82
8.65729
104
8.65804
95
8.6588
81
8.65955
95
8.66031
77
8.66106
84
8.66182
95
8.66257
94
8.66333
90
8.66408
98
8.66484
106
8.66559
93
8.66635
115
8.6671
93
8.66786
95
8.66861
102
8.66937
111
8.67012
91
8.67088
98
8.67163
89
8.67239
85
8.67314
93
8.6739
100
8.67465
96
8.6743
109
8.67363
114
8.67297
72
8.6723
79
8.67163
78
8.67097
105
8.6703
97
8.66964
84
8.66897
94
8.6683
92
8.66764
95
8.66697
93
8.66631
97
8.66564
97
8.66498
94
8.66431
105
8.66364
116
8.66298
123
8.66231
126
8.66165
131
8.66098
92
8.66032
92
8.65965
102
8.65898
91
8.65832
92
8.65765
85
8.65699
96
8.65632
86
8.65565
105
8.65499
101
8.65432
89
8.65366
72
8.65299
82
8.65233
85
8.65166
104
8.65099
88
8.65033
78
8.64966
83
8.649
91
8.64833
101
8.64767
94
8.647
102
8.64633
95
8.64567
83
8.645
85
8.64434
89
8.64367
95
8.643
92
8.64234
101
8.64167
97
8.64101
96
8.64034
89
8.63968
100
8.63901
91
8.63834
83
8.63768
96
8.6398
88
8.64272
82
8.64563
90
8.64854
89
8.65146
91
8.65437
84
8.65728
104
8.6602
95
8.66311
74
8.66602
74
8.66894
88
8.67185
92
8.67476
109
8.67768
97
8.68059
97
8.6835
111
8.68642
94
8.68933
104
8.69224
100
8.69516
101
8.69807
109
8.70098
107
8.7039
111
8.70681
109
8.70972
121
8.71264
88
8.71555
99
8.71846
108
8.72137
114
8.72429
118
8.7272
119
8.73011
105
8.73303
83
8.73594
106
8.73885
91
8.74177
92
8.74468
90
8.74759
101
8.75051
107
8.75342
106
8.75633
107
8.75925
98
8.76216
103
8.76507
107
8.76799
86
8.7709
97
8.77381
104
8.77673
112
8.77964
108
8.78255
106
8.78547
114
8.78838
88
8.79129
100
8.79421
93
8.79712
96
8.80003
100
8.80295
90
8.80586
109
8.80877
106
8.81169
97
8.8146
110
8.81751
117
8.82043
119
8.82334
127
8.82625
112
8.82916
124
8.83208
126
8.83499
117
8.8379
106
8.84082
124
8.84373
117
8.84664
102
8.84956
107
8.85247
114
8.85538
115
8.8583
111
8.86121
116
8.86412
101
8.86704
106
8.86995
93
8.87286
91
8.87578
107
8.87869
96
8.8816
91
8.88452
87
8.88743
94
8.89034
81
8.89326
87
8.89617
70
8.89908
79
8.902
91
8.90491
78
8.90782
91
8.91074
110
8.91365
183
8.91656
261
8.91948
345
8.92239
385
8.9253
344
8.92822
224
8.93113
151
8.93404
122
8.93695
106
8.93987
84
8.94051
76
8.94051
61
8.94051
72
8.94051
73
8.94051
68
8.94051
67
8.94051
81
8.94051
83
8.94051
83
8.94051
68
8.94051
74
8.94051
91
8.94051
112
8.94051
106
8.94051
102
8.94051
98
8.94051
108
8.94051
133
8.94051
83
8.94051
47
8.94051
45
8.94051
24
8.94051
21
8.94051
9
8.94051
4
8.94051
4
8.94051
F 1s/5
Not Specified
2017
7
4
12
57
15
0
9
Casa Info Follows
1
Calib M = 283.183 A = 284.6 BE ADD
0
0
0
   XPS     Spectrum    Lens Mode:Hybrid   Resolution:Pass energy 40    Iris(Aper):slot(Slot)
   Acqn. Time(s): 121        Sweeps: 2        Anode:Mono(Al (Mono))(150 W)   Step(meV): 50.0  
   Dwell Time(ms): 150        Charge Neutraliser :On   Acquired On :17/07/04 12:57:15
XPS
77
-3
0
Mono(Al (Mono))
1486.69
150
1e+037
1e+037
6000
6000
1e+037
1e+037
FAT
40
1e+037
-4.45
0
1e+037
1e+037
1e+037
1e+037
F
1s
-1
Kinetic Energy
eV
790.64
0.05
2
Intensity
d
Transmission
d
pulse counting
0.15
2
0
1e+037
1e+037
1e+037
0
806
576
15890
3.41724
3.42712
905
3.42712
929
3.4271
960
3.42707
916
3.42705
868
3.42702
914
3.427
895
3.42698
897
3.42695
863
3.42693
915
3.4269
890
3.42688
886
3.42686
861
3.42683
834
3.42681
892
3.42678
865
3.42676
856
3.42674
896
3.42671
860
3.42669
813
3.42667
870
3.42664
802
3.42662
796
3.42659
816
3.42657
836
3.42655
840
3.42652
835
3.4265
826
3.42647
809
3.42645
855
3.42643
858
3.4264
801
3.42638
826
3.42636
788
3.42633
852
3.42631
815
3.42628
825
3.42626
852
3.42624
862
3.42621
826
3.42619
801
3.42616
795
3.42614
827
3.42612
857
3.42609
809
3.42607
761
3.42605
796
3.42602
847
3.426
874
3.42597
866
3.42595
846
3.42593
831
3.4259
814
3.42588
811
3.42585
763
3.42583
801
3.42581
819
3.42578
793
3.42576
815
3.42573
837
3.42571
857
3.42569
866
3.42566
833
3.42564
812
3.42562
890
3.42559
825
3.42557
849
3.42554
854
3.42552
826
3.4255
889
3.42547
802
3.42545
846
3.42542
814
3.4254
879
3.42538
856
3.42535
848
3.42533
816
3.42531
819
3.42528
858
3.42526
832
3.42523
862
3.42521
873
3.42519
848
3.42516
884
3.42514
921
3.42511
903
3.42509
933
3.42507
915
3.42504
911
3.42502
874
3.425
904
3.42497
924
3.42495
879
3.42492
947
3.4249
945
3.42488
980
3.42485
956
3.42483
1011
3.4248
956
3.42478
951
3.42476
999
3.42473
1013
3.42471
1013
3.42469
994
3.42466
1050
3.42464
1078
3.42461
1088
3.42459
1102
3.42457
1122
3.42454
1154
3.42452
1160
3.42449
1207
3.42447
1225
3.42445
1310
3.42442
1350
3.4244
1267
3.42437
1374
3.42435
1417
3.42433
1411
3.4243
1459
3.42428
1454
3.42426
1531
3.42423
1621
3.42421
1557
3.42418
1646
3.42416
1682
3.42414
1686
3.42411
1798
3.42409
1862
3.42406
1890
3.42404
1945
3.42402
2033
3.42399
2112
3.42397
2202
3.42395
2222
3.42392
2351
3.4239
2517
3.42387
2556
3.42385
2570
3.42383
2729
3.4238
2784
3.42378
2880
3.42375
3018
3.42373
3146
3.42371
3243
3.42368
3478
3.42366
3598
3.42364
3747
3.42361
3832
3.42359
3936
3.42356
4161
3.42354
4350
3.42352
4506
3.42349
4804
3.42347
4872
3.42344
5006
3.42342
5270
3.4234
5529
3.42337
5881
3.42335
6277
3.42333
6416
3.4233
6721
3.42328
7120
3.42325
7480
3.42323
7875
3.42321
8110
3.42318
8448
3.42316
8923
3.42313
9301
3.42311
9934
3.42309
10331
3.42306
10884
3.42304
11215
3.42301
11751
3.42299
12251
3.42297
12681
3.42294
13223
3.42292
13619
3.4229
13853
3.42287
14359
3.42285
14556
3.42282
15073
3.4228
15258
3.42278
15418
3.42275
15529
3.42273
15809
3.4227
15890
3.42268
15799
3.42266
15623
3.42263
15539
3.42261
15504
3.42259
15189
3.42256
14832
3.42254
14450
3.42251
13941
3.42249
13417
3.42247
12996
3.42244
12324
3.42242
11816
3.42239
11333
3.42237
10590
3.42235
10034
3.42232
9472
3.4223
8845
3.42228
8218
3.42225
7675
3.42223
7175
3.4222
6663
3.42218
6215
3.42216
5751
3.42213
5212
3.42211
4822
3.42208
4488
3.42206
4167
3.42204
3756
3.42201
3362
3.42199
3210
3.42196
2973
3.42194
2782
3.42192
2476
3.42189
2323
3.42187
2173
3.42185
2100
3.42182
1889
3.4218
1808
3.42177
1721
3.42175
1619
3.42173
1490
3.4217
1430
3.42168
1351
3.42165
1348
3.42163
1317
3.42161
1276
3.42158
1219
3.42156
1225
3.42154
1141
3.42151
1134
3.42149
1086
3.42146
1023
3.42144
999
3.42142
997
3.42139
988
3.42137
918
3.42134
944
3.42132
924
3.4213
874
3.42127
882
3.42125
884
3.42123
879
3.4212
851
3.42118
865
3.42115
807
3.42113
774
3.42111
791
3.42108
839
3.42106
764
3.42103
773
3.42101
754
3.42099
763
3.42096
799
3.42094
765
3.42091
744
3.42089
774
3.42087
763
3.42084
736
3.42082
729
3.4208
722
3.42077
736
3.42075
701
3.42072
720
3.4207
729
3.42068
703
3.42065
717
3.42063
709
3.4206
699
3.42058
693
3.42056
704
3.42053
718
3.42051
694
3.42049
687
3.42046
725
3.42044
674
3.42041
683
3.42039
651
3.42037
672
3.42034
687
3.42032
658
3.42029
645
3.42027
690
3.42025
688
3.42022
677
3.4202
642
3.42018
703
3.42015
690
3.42013
659
3.4201
657
3.42008
707
3.42006
664
3.42003
649
3.42001
643
3.41998
683
3.41996
662
3.41994
663
3.41991
629
3.41989
651
3.41986
626
3.41984
666
3.41982
650
3.41979
636
3.41977
627
3.41975
629
3.41972
651
3.4197
621
3.41967
616
3.41965
668
3.41963
628
3.4196
644
3.41958
657
3.41955
656
3.41953
650
3.41951
629
3.41948
635
3.41946
622
3.41944
627
3.41941
634
3.41939
596
3.41936
667
3.41934
628
3.41932
678
3.41929
642
3.41927
624
3.41924
672
3.41922
659
3.4192
620
3.41917
665
3.41915
605
3.41913
634
3.4191
629
3.41908
611
3.41905
610
3.41903
635
3.41901
616
3.41898
617
3.41896
645
3.41893
660
3.41891
631
3.41889
654
3.41886
650
3.41884
656
3.41881
648
3.41879
652
3.41877
599
3.41874
631
3.41872
661
3.4187
651
3.41867
612
3.41865
617
3.41862
596
3.4186
661
3.41858
617
3.41855
595
3.41853
603
3.4185
617
3.41848
662
3.41846
647
3.41843
618
3.41841
621
3.41839
634
3.41836
626
3.41834
609
3.41831
617
3.41829
653
3.41827
643
3.41824
631
3.41822
664
3.41819
671
3.41817
640
3.41815
621
3.41812
644
3.4181
615
3.41808
649
3.41805
650
3.41803
628
3.418
623
3.41798
616
3.41796
610
3.41793
624
3.4179
627
3.41786
609
3.41781
652
3.41777
576
3.41773
615
3.41769
614
3.41765
610
3.41761
598
3.41757
583
3.41753
613
3.41748
620
3.41744
648
3.4174
612
3.41736
628
3.41732
643
3.41728
642
3.41724
O 1s/6
Not Specified
2017
7
4
12
57
15
0
9
Casa Info Follows
1
Calib M = 283.183 A = 284.6 BE ADD
0
0
0
   XPS     Spectrum    Lens Mode:Hybrid   Resolution:Pass energy 40    Iris(Aper):slot(Slot)
   Acqn. Time(s): 162        Sweeps: 3        Anode:Mono(Al (Mono))(150 W)   Step(meV): 50.0  
   Dwell Time(ms): 150        Charge Neutraliser :On   Acquired On :17/07/04 12:57:15
XPS
77
-3
0
Mono(Al (Mono))
1486.69
150
1e+037
1e+037
6000
6000
1e+037
1e+037
FAT
40
1e+037
-4.45
0
1e+037
1e+037
1e+037
1e+037
O
1s
-1
Kinetic Energy
eV
946.69
0.05
2
Intensity
d
Transmission
d
pulse counting
0.15
3
0
1e+037
1e+037
1e+037
0
722
626
3192
3.32569
3.34183
840
3.34183
830
3.34178
782
3.34174
787
3.34169
835
3.34165
824
3.3416
786
3.34156
822
3.34151
830
3.34147
846
3.34142
856
3.34138
786
3.34133
807
3.34129
786
3.34124
800
3.3412
774
3.34115
762
3.34111
783
3.34107
800
3.34102
792
3.34098
879
3.34093
797
3.34089
814
3.34084
782
3.3408
795
3.34075
798
3.34071
800
3.34066
832
3.34062
764
3.34057
789
3.34053
808
3.34048
773
3.34044
825
3.34039
771
3.34035
788
3.3403
748
3.34026
820
3.34021
793
3.34017
797
3.34012
819
3.34008
815
3.34003
732
3.33999
799
3.33994
784
3.3399
792
3.33985
813
3.33981
824
3.33976
815
3.33972
807
3.33968
763
3.33963
795
3.33959
810
3.33954
789
3.3395
839
3.33945
842
3.33941
802
3.33936
802
3.33932
823
3.33927
803
3.33923
810
3.33918
797
3.33914
818
3.33909
817
3.33905
778
3.339
841
3.33896
772
3.33891
786
3.33887
811
3.33882
732
3.33878
793
3.33873
839
3.33869
775
3.33864
794
3.3386
846
3.33855
819
3.33851
837
3.33846
815
3.33842
799
3.33837
811
3.33833
774
3.33829
805
3.33824
824
3.3382
805
3.33815
784
3.33811
811
3.33806
821
3.33802
809
3.33797
809
3.33793
827
3.33788
815
3.33784
828
3.33779
810
3.33775
861
3.3377
850
3.33766
860
3.33761
847
3.33757
828
3.33752
877
3.33748
864
3.33743
838
3.33739
864
3.33734
867
3.3373
886
3.33725
872
3.33721
910
3.33716
925
3.33712
921
3.33707
916
3.33703
949
3.33698
939
3.33694
930
3.3369
946
3.33685
955
3.33681
966
3.33676
1002
3.33672
982
3.33667
1034
3.33663
1025
3.33658
1060
3.33654
1008
3.33649
1042
3.33645
1112
3.3364
1099
3.33636
1165
3.33631
1175
3.33627
1135
3.33622
1175
3.33618
1170
3.33613
1222
3.33609
1218
3.33604
1205
3.336
1272
3.33595
1289
3.33591
1313
3.33586
1328
3.33582
1365
3.33577
1422
3.33573
1453
3.33568
1464
3.33564
1514
3.3356
1534
3.33555
1588
3.33551
1583
3.33546
1630
3.33542
1657
3.33537
1729
3.33533
1798
3.33528
1891
3.33524
1893
3.33519
1953
3.33515
2022
3.3351
2088
3.33506
2133
3.33501
2203
3.33497
2237
3.33492
2227
3.33488
2267
3.33483
2435
3.33479
2485
3.33474
2536
3.3347
2639
3.33465
2728
3.33461
2765
3.33456
2889
3.33452
2839
3.33447
2841
3.33443
2978
3.33438
2961
3.33434
2970
3.33429
3106
3.33425
3177
3.33421
3125
3.33416
3118
3.33412
3133
3.33407
3141
3.33403
3192
3.33398
3144
3.33394
3067
3.33389
3109
3.33385
3149
3.3338
3111
3.33376
3023
3.33371
3018
3.33367
3011
3.33362
2910
3.33358
2882
3.33353
2872
3.33349
2745
3.33344
2740
3.3334
2688
3.33335
2628
3.33331
2565
3.33326
2452
3.33322
2410
3.33317
2400
3.33313
2316
3.33308
2163
3.33304
2209
3.33299
2169
3.33295
2106
3.3329
2030
3.33286
1947
3.33282
1936
3.33277
1869
3.33273
1846
3.33268
1774
3.33264
1763
3.33259
1638
3.33255
1580
3.3325
1514
3.33246
1488
3.33241
1439
3.33237
1391
3.33232
1343
3.33228
1337
3.33223
1292
3.33219
1268
3.33214
1187
3.3321
1164
3.33205
1102
3.33201
1116
3.33196
1064
3.33192
1001
3.33187
969
3.33183
986
3.33178
942
3.33174
942
3.33169
902
3.33165
863
3.3316
879
3.33156
834
3.33151
846
3.33147
875
3.33143
863
3.33138
828
3.33134
772
3.33129
769
3.33125
817
3.3312
749
3.33116
814
3.33111
765
3.33107
817
3.33102
800
3.33098
743
3.33093
745
3.33089
732
3.33084
749
3.3308
778
3.33075
764
3.33071
736
3.33066
697
3.33062
779
3.33057
726
3.33053
749
3.33048
724
3.33044
728
3.33039
721
3.33035
684
3.3303
791
3.33026
754
3.33021
721
3.33017
690
3.33012
687
3.33008
716
3.33004
733
3.32999
708
3.32995
731
3.3299
671
3.32986
686
3.32981
696
3.32977
714
3.32972
714
3.32968
669
3.32963
720
3.32959
712
3.32954
714
3.3295
722
3.32945
735
3.32941
711
3.32936
734
3.32932
715
3.32927
720
3.32923
744
3.32918
727
3.32914
729
3.32909
721
3.32905
695
3.329
683
3.32896
731
3.32891
707
3.32887
696
3.32882
666
3.32878
699
3.32873
680
3.32869
727
3.32865
724
3.3286
707
3.32856
706
3.32851
669
3.32847
661
3.32842
689
3.32838
718
3.32833
708
3.32829
716
3.32824
729
3.3282
721
3.32815
741
3.32811
729
3.32806
713
3.32802
667
3.32797
688
3.32793
741
3.32788
707
3.32784
749
3.32779
729
3.32775
697
3.3277
787
3.32766
720
3.32761
732
3.32757
690
3.32752
715
3.32748
703
3.32743
683
3.32739
708
3.32735
677
3.3273
691
3.32726
706
3.32721
703
3.32717
658
3.32712
696
3.32708
712
3.32703
678
3.32699
688
3.32694
703
3.3269
691
3.32685
701
3.32681
704
3.32676
701
3.32672
715
3.32667
693
3.32663
664
3.32658
713
3.32654
679
3.32649
641
3.32645
626
3.3264
709
3.32636
691
3.32631
705
3.32627
719
3.32622
703
3.32618
635
3.32613
701
3.32609
688
3.32604
651
3.326
719
3.32596
711
3.32591
705
3.32587
753
3.32582
698
3.32578
719
3.32573
686
3.32569
C 1s/7
Not Specified
2017
7
4
12
57
15
0
9
Casa Info Follows
1
Calib M = 283.183 A = 284.6 BE ADD
0
0
0
   XPS     Spectrum    Lens Mode:Hybrid   Resolution:Pass energy 40    Iris(Aper):slot(Slot)
   Acqn. Time(s): 138        Sweeps: 2        Anode:Mono(Al (Mono))(150 W)   Step(meV): 50.0  
   Dwell Time(ms): 150        Charge Neutraliser :On   Acquired On :17/07/04 12:57:15
XPS
77
-3
0
Mono(Al (Mono))
1486.69
150
1e+037
1e+037
6000
6000
1e+037
1e+037
FAT
40
1e+037
-4.45
0
1e+037
1e+037
1e+037
1e+037
C
1s
-1
Kinetic Energy
eV
1190.19
0.05
2
Intensity
d
Transmission
d
pulse counting
0.15
2
0
1e+037
1e+037
1e+037
0
922
81
4685
3.16755
3.19198
286
3.16755
249
3.1676
283
3.16765
274
3.16771
277
3.16776
263
3.16781
299
3.16787
269
3.16792
259
3.16797
267
3.16802
283
3.16808
259
3.16813
268
3.16818
248
3.16824
252
3.16829
241
3.16834
253
3.1684
226
3.16845
260
3.1685
258
3.16856
272
3.16861
240
3.16866
253
3.16871
266
3.16877
231
3.16882
253
3.16887
238
3.16893
257
3.16898
247
3.16903
258
3.16909
259
3.16914
240
3.16919
231
3.16925
242
3.1693
259
3.16935
253
3.16941
239
3.16946
245
3.16951
246
3.16956
239
3.16962
261
3.16967
242
3.16972
243
3.16978
257
3.16983
236
3.16988
255
3.16994
258
3.16999
235
3.17004
243
3.1701
228
3.17015
237
3.1702
239
3.17025
231
3.17031
251
3.17036
255
3.17041
249
3.17047
239
3.17052
233
3.17057
240
3.17063
216
3.17068
256
3.17073
242
3.17079
242
3.17084
227
3.17089
229
3.17095
237
3.171
255
3.17105
246
3.1711
263
3.17116
244
3.17121
224
3.17126
257
3.17132
228
3.17137
225
3.17142
254
3.17148
244
3.17153
268
3.17158
271
3.17164
253
3.17169
249
3.17174
269
3.17179
266
3.17185
267
3.1719
280
3.17195
274
3.17201
270
3.17206
277
3.17211
287
3.17217
265
3.17222
287
3.17227
312
3.17233
301
3.17238
312
3.17243
286
3.17249
326
3.17254
327
3.17259
303
3.17264
302
3.1727
339
3.17275
335
3.1728
331
3.17286
354
3.17291
355
3.17296
367
3.17302
352
3.17307
384
3.17312
383
3.17318
426
3.17323
413
3.17328
452
3.17334
480
3.17339
444
3.17344
488
3.17349
487
3.17355
509
3.1736
555
3.17365
557
3.17371
593
3.17376
608
3.17381
690
3.17387
679
3.17392
720
3.17397
746
3.17403
792
3.17408
810
3.17413
825
3.17418
880
3.17424
860
3.17429
911
3.17434
956
3.1744
968
3.17445
970
3.1745
1040
3.17456
1030
3.17461
1025
3.17466
1022
3.17472
1090
3.17477
1141
3.17482
1155
3.17488
1184
3.17493
1208
3.17498
1228
3.17503
1263
3.17509
1303
3.17514
1323
3.17519
1329
3.17525
1341
3.1753
1432
3.17535
1451
3.17541
1603
3.17546
1661
3.17551
1679
3.17557
1740
3.17562
1875
3.17567
2015
3.17572
2150
3.17578
2223
3.17583
2321
3.17588
2486
3.17594
2643
3.17599
2892
3.17604
3080
3.1761
3285
3.17615
3425
3.1762
3673
3.17626
3783
3.17631
3969
3.17636
4106
3.17642
4302
3.17647
4455
3.17652
4556
3.17657
4550
3.17663
4670
3.17668
4685
3.17673
4596
3.17679
4574
3.17684
4493
3.17689
4464
3.17695
4218
3.177
3994
3.17705
3826
3.17711
3631
3.17716
3342
3.17721
3108
3.17726
2956
3.17732
2741
3.17737
2562
3.17742
2317
3.17748
2109
3.17753
1957
3.17758
1757
3.17764
1656
3.17769
1486
3.17774
1402
3.1778
1371
3.17785
1231
3.1779
1186
3.17796
1131
3.17801
1051
3.17806
980
3.17811
999
3.17817
943
3.17822
911
3.17827
914
3.17833
975
3.17838
959
3.17843
991
3.17849
1002
3.17854
1026
3.17859
965
3.17865
965
3.1787
994
3.17875
1014
3.17881
1041
3.17886
1027
3.17891
1068
3.17896
1085
3.17902
1062
3.17907
1044
3.17912
1119
3.17918
1104
3.17923
1136
3.17928
1106
3.17934
1139
3.17939
1138
3.17944
1124
3.1795
1075
3.17955
1071
3.1796
1040
3.17965
980
3.17971
1033
3.17976
1005
3.17981
996
3.17987
1010
3.17992
941
3.17997
963
3.18003
934
3.18008
892
3.18013
882
3.18019
890
3.18024
848
3.18029
834
3.18035
850
3.1804
855
3.18045
813
3.1805
806
3.18056
872
3.18061
842
3.18066
822
3.18072
779
3.18077
810
3.18082
849
3.18088
861
3.18093
843
3.18098
823
3.18104
885
3.18109
911
3.18114
883
3.1812
864
3.18125
852
3.1813
893
3.18135
809
3.18141
837
3.18146
859
3.18151
894
3.18157
868
3.18162
847
3.18167
809
3.18173
820
3.18178
887
3.18183
883
3.18189
809
3.18194
770
3.18199
767
3.18204
782
3.1821
821
3.18215
761
3.1822
754
3.18226
697
3.18231
671
3.18236
630
3.18242
639
3.18247
653
3.18252
582
3.18258
567
3.18263
496
3.18268
528
3.18274
454
3.18279
433
3.18284
379
3.18289
358
3.18295
337
3.183
348
3.18305
328
3.18311
296
3.18316
257
3.18321
234
3.18327
232
3.18332
230
3.18337
191
3.18343
194
3.18348
179
3.18353
182
3.18358
158
3.18364
165
3.18369
180
3.18374
157
3.1838
148
3.18385
130
3.1839
136
3.18396
124
3.18401
128
3.18406
139
3.18412
127
3.18417
124
3.18422
110
3.18428
109
3.18433
116
3.18438
113
3.18443
109
3.18449
116
3.18454
102
3.18459
120
3.18465
127
3.1847
120
3.18475
96
3.18481
115
3.18486
125
3.18491
98
3.18497
104
3.18502
128
3.18507
120
3.18512
104
3.18518
110
3.18523
110
3.18528
108
3.18534
90
3.18539
115
3.18544
115
3.1855
104
3.18555
107
3.1856
108
3.18566
118
3.18571
120
3.18576
125
3.18582
116
3.18587
121
3.18592
114
3.18597
101
3.18603
98
3.18608
121
3.18613
116
3.18619
92
3.18624
91
3.18629
107
3.18635
105
3.1864
124
3.18645
100
3.18651
106
3.18656
125
3.18661
95
3.18667
91
3.18672
98
3.18677
102
3.18682
106
3.18688
105
3.18693
104
3.18698
112
3.18704
106
3.18709
108
3.18714
108
3.1872
90
3.18725
91
3.1873
100
3.18736
112
3.18741
111
3.18746
99
3.18751
114
3.18757
98
3.18762
115
3.18767
107
3.18773
91
3.18778
93
3.18783
103
3.18789
99
3.18794
96
3.18799
87
3.18805
89
3.1881
111
3.18815
105
3.18821
97
3.18826
104
3.18831
96
3.18836
116
3.18842
94
3.18847
105
3.18852
91
3.18858
108
3.18863
95
3.18868
108
3.18874
100
3.18879
116
3.18884
98
3.1889
122
3.18895
104
3.189
106
3.18905
97
3.18911
106
3.18916
108
3.18921
109
3.18927
92
3.18932
100
3.18937
116
3.18943
123
3.18948
112
3.18953
92
3.18959
122
3.18964
103
3.18969
105
3.18975
105
3.1898
115
3.18985
105
3.1899
81
3.18996
82
3.19001
111
3.19006
108
3.19012
120
3.19017
107
3.19022
107
3.19028
104
3.19033
122
3.19038
104
3.19044
112
3.19049
112
3.19054
100
3.19059
118
3.19065
90
3.1907
89
3.19075
90
3.19081
103
3.19086
104
3.19091
109
3.19097
118
3.19102
98
3.19107
113
3.19113
96
3.19118
106
3.19123
89
3.19129
106
3.19134
108
3.19139
109
3.19144
110
3.1915
88
3.19155
103
3.1916
100
3.19166
110
3.19171
103
3.19176
104
3.19182
91
3.19187
99
3.19192
97
3.19198
end of experiment
