VAMAS Surface Chemical Analysis Standard Data Transfer Format 1988 May 4
Not Specified
Kratos Axis
Not Specified
/d=/data/20170705/2017006144/A4.dset
3
Casa Info Follows
0
SourceAnalyserAngle: Not Specified
MAP
REGULAR
4
2
32768
32768
1
Etch Time
s
0
0
0
0
4
wide/2
Not Specified
2017
7
4
10
52
10
0
29
Casa Info Follows
1
Calib M = 282.884 A = 284.6 BE ADD
10
annot text peak Data 1201.97 1078 RGB(0,0,0) Font(14,18,0,0,Times New Roman) Vertical
C 1s
annot text peak Data 510.974 2398 RGB(0,0,0) Font(14,18,0,0,Times New Roman) Vertical
O KLL
annot text peak Data 954.974 1807 RGB(0,0,0) Font(14,18,0,0,Times New Roman) Vertical
O 1s
annot text peak Data 642 1998 RGB(0,0,0) Font(14,18,0,0,Times New Roman) Vertical
F KLL
annot text peak Data 798.974 6416 RGB(0,0,0) Font(14,18,0,0,Times New Roman) Vertical
F 1s
annot text peak Data 1217.97 228 RGB(0,0,0) Font(14,18,0,0,Times New Roman) Vertical
Cl 2s
annot text peak Data 1288.97 264 RGB(0,0,0) Font(14,18,0,0,Times New Roman) Vertical
Cl 2p
annot text peak Data 1254.97 179 RGB(0,0,0) Font(14,18,0,0,Times New Roman) Vertical
S 2s
annot text peak Data 1317.97 165 RGB(0,0,0) Font(14,18,0,0,Times New Roman) Vertical
S 2p
annot text peak Data 1452.97 261 RGB(0,0,0) Font(14,18,0,0,Times New Roman) Vertical
F 2s
0
0
   XPS     Spectrum    Lens Mode:Hybrid   Resolution:Pass energy 80    Iris(Aper):slot(Slot)
   Acqn. Time(s): 110        Sweeps: 1        Anode:Mono(Al (Mono))(150 W)   Step(meV): 1000.0
   Dwell Time(ms): 100        Charge Neutraliser :On   Acquired On :17/07/04 10:52:10
XPS
84
-3
0
Mono(Al (Mono))
1486.69
150
1e+037
1e+037
6000
6000
1e+037
1e+037
FAT
80
1e+037
-4.45
0
1e+037
1e+037
1e+037
1e+037
Wide
None
-1
Kinetic Energy
eV
386.69
1
2
Intensity
d
Transmission
d
pulse counting
0.1
1
0
1e+037
1e+037
1e+037
0
2202
7
6416
8.48115
10.2364
2027
10.2364
1975
10.2286
1956
10.2207
1971
10.2129
2051
10.2051
2135
10.1972
2111
10.1894
2032
10.1815
2005
10.1737
2086
10.1658
2122
10.158
2058
10.1502
2045
10.1423
2027
10.1345
2107
10.1266
2042
10.1188
2000
10.1109
2027
10.1031
1977
10.0953
2077
10.0874
2014
10.0796
2028
10.0717
1965
10.0639
1977
10.056
2052
10.0492
2049
10.0427
2053
10.0362
2057
10.0296
2029
10.0231
2090
10.0166
2107
10.0101
2040
10.0035
2048
9.997
2097
9.99047
2017
9.98395
2057
9.97742
2067
9.97089
2128
9.96436
2044
9.95784
2066
9.95131
2108
9.94478
2085
9.93825
2086
9.93173
2091
9.9252
2086
9.91867
2137
9.91215
2170
9.90562
2143
9.89909
2110
9.89256
2075
9.88604
2120
9.87951
2102
9.87298
2081
9.86645
2126
9.85993
2112
9.8534
2106
9.84687
2183
9.84034
2108
9.83382
2077
9.82729
2126
9.82076
2124
9.81423
2139
9.80771
2169
9.80118
2158
9.79465
2126
9.78813
2092
9.7816
2173
9.77507
2138
9.76854
2085
9.76202
2096
9.75549
2118
9.74896
2162
9.74243
2172
9.73591
2149
9.72938
2159
9.72439
2188
9.71983
2257
9.71527
2189
9.71071
2175
9.70615
2202
9.7016
2213
9.69704
2160
9.69248
2163
9.68792
2215
9.68336
2204
9.67881
2244
9.67425
2230
9.66969
2173
9.66513
2200
9.66057
2234
9.65602
2238
9.65146
2248
9.6469
2175
9.64234
2215
9.63778
2190
9.63322
2176
9.62867
2311
9.62411
2332
9.61955
2290
9.61499
2250
9.61043
2233
9.60588
2265
9.60132
2288
9.59676
2283
9.5922
2291
9.58764
2276
9.58309
2242
9.57853
2280
9.57397
2292
9.56941
2235
9.56485
2211
9.56029
2151
9.55574
2223
9.55118
2141
9.54662
2154
9.54206
2191
9.5375
2242
9.53294
2190
9.52839
2230
9.52383
2290
9.51927
2299
9.51471
2312
9.51015
2271
9.5056
2357
9.50104
2347
9.4966
2368
9.49219
2398
9.48778
2385
9.48337
2293
9.47896
2327
9.47455
2297
9.47014
2251
9.46573
2158
9.46132
2184
9.45691
2099
9.45251
2130
9.4481
2098
9.44369
2089
9.43928
2158
9.43487
2115
9.43046
2054
9.42605
2031
9.42164
2085
9.41723
2028
9.41282
2080
9.40841
2086
9.40401
2061
9.3996
2038
9.39519
2073
9.39078
2102
9.38637
2094
9.38196
2119
9.37755
2097
9.37314
2105
9.36873
2046
9.36432
2042
9.35992
2064
9.35551
2015
9.3511
2122
9.34669
2130
9.34228
2138
9.33787
2114
9.33346
2162
9.32905
2055
9.32464
2085
9.32023
2055
9.31583
2027
9.31142
2063
9.30701
2077
9.3026
2074
9.29819
2073
9.29378
2124
9.28937
2124
9.28496
2098
9.28055
2135
9.27708
2076
9.27386
2076
9.27065
2041
9.26744
2098
9.26422
2064
9.26101
2078
9.2578
2086
9.25458
2072
9.25137
2094
9.24816
2105
9.24494
2106
9.24173
2094
9.23852
2143
9.2353
2142
9.23209
2102
9.22888
2111
9.22566
2154
9.22245
2159
9.21924
2109
9.21602
2084
9.21281
2121
9.2096
2111
9.20638
2140
9.20317
2130
9.19996
2110
9.19674
2112
9.19353
2166
9.19032
2158
9.1871
2128
9.18389
2154
9.18068
2146
9.17746
2099
9.17425
2128
9.17104
2166
9.16782
2108
9.16461
2177
9.1614
2151
9.15818
2108
9.15497
2086
9.15176
2048
9.14854
2086
9.14533
2071
9.14212
2084
9.1389
2077
9.13569
2045
9.13247
2088
9.12926
2176
9.12605
2229
9.12284
2248
9.11962
2129
9.11731
2058
9.11525
2056
9.11319
2070
9.11112
2177
9.10906
2162
9.107
2092
9.10494
2076
9.10288
2037
9.10082
2026
9.09876
1972
9.0967
2127
9.09464
2110
9.09258
2225
9.09052
2268
9.08845
2293
9.08639
2335
9.08433
2358
9.08227
2314
9.08021
2277
9.07815
2311
9.07609
2222
9.07403
2204
9.07197
2150
9.06991
2116
9.06785
2079
9.06578
2070
9.06372
2129
9.06166
2035
9.0596
2005
9.05754
2034
9.05548
1938
9.05342
1920
9.05136
1998
9.0493
1883
9.04724
1882
9.04518
1918
9.04311
1971
9.04105
1986
9.03899
2030
9.03693
2163
9.03487
2316
9.03281
2477
9.03075
2643
9.02869
2767
9.02663
2845
9.02457
2806
9.0225
2649
9.02044
2495
9.01838
2219
9.01632
2124
9.01335
1922
9.01012
1887
9.0069
1806
9.00367
1745
9.00044
1587
8.99721
1532
8.99398
1462
8.99076
1465
8.98753
1488
8.9843
1458
8.98107
1444
8.97784
1407
8.97462
1417
8.97139
1388
8.96816
1386
8.96493
1375
8.9617
1373
8.95848
1438
8.95525
1374
8.95202
1399
8.94879
1416
8.94556
1370
8.94234
1417
8.93911
1398
8.93588
1390
8.93265
1349
8.92942
1443
8.9262
1425
8.92297
1402
8.91974
1391
8.91651
1408
8.91328
1375
8.91006
1363
8.90683
1400
8.9036
1399
8.90037
1374
8.89714
1385
8.89392
1357
8.89069
1439
8.88746
1451
8.88483
1434
8.88236
1421
8.8799
1480
8.87743
1360
8.87497
1403
8.87251
1420
8.87004
1405
8.86758
1385
8.86511
1368
8.86265
1371
8.86019
1361
8.85772
1398
8.85526
1403
8.85279
1443
8.85033
1400
8.84786
1391
8.8454
1356
8.84294
1344
8.84047
1364
8.83801
1430
8.83554
1362
8.83308
1366
8.83062
1359
8.82815
1378
8.82569
1332
8.82322
1359
8.82076
1334
8.81829
1409
8.81583
1400
8.81337
1377
8.8109
1450
8.80844
1351
8.80597
1377
8.80351
1334
8.80104
1378
8.79858
1347
8.79612
1369
8.79365
1373
8.79119
1356
8.78872
1349
8.78626
1359
8.7838
1408
8.78133
1391
8.77887
1399
8.7764
1393
8.77394
1395
8.77147
1409
8.76901
1377
8.76655
1319
8.76408
1347
8.76162
1355
8.75915
1356
8.75669
1351
8.75422
1307
8.75176
1300
8.7493
1366
8.74683
1379
8.74437
1382
8.7419
1359
8.73944
1394
8.73885
1356
8.73879
1397
8.73873
1419
8.73867
1442
8.73861
1426
8.73855
1366
8.73849
1371
8.73843
1333
8.73837
1379
8.73831
1427
8.73825
1425
8.73819
1420
8.73813
1327
8.73806
1395
8.738
1457
8.73794
1421
8.73788
1399
8.73782
1373
8.73776
1256
8.7377
1179
8.73764
1164
8.73758
1108
8.73752
1001
8.73746
994
8.7374
951
8.73734
1000
8.73728
921
8.73722
848
8.73716
809
8.7371
789
8.73704
766
8.73698
695
8.73692
687
8.73686
701
8.7368
764
8.73674
827
8.73668
1270
8.73662
2557
8.73655
5307
8.73649
6416
8.73643
3423
8.73637
1209
8.73631
774
8.73625
655
8.73619
619
8.73613
633
8.73607
613
8.73601
556
8.73595
593
8.73589
585
8.73468
578
8.73314
598
8.73161
608
8.73007
593
8.72854
584
8.727
580
8.72547
557
8.72393
596
8.7224
570
8.72086
561
8.71933
565
8.71779
563
8.71626
591
8.71472
566
8.71319
561
8.71165
581
8.71012
586
8.70858
599
8.70705
579
8.70551
600
8.70398
620
8.70244
625
8.70091
569
8.69937
628
8.69784
606
8.6963
563
8.69477
594
8.69323
580
8.6917
608
8.69016
620
8.68863
599
8.68709
587
8.68556
611
8.68402
606
8.68249
629
8.68095
631
8.67942
584
8.67788
599
8.67635
571
8.67481
602
8.67328
589
8.67174
563
8.67021
561
8.66867
591
8.66714
584
8.6656
581
8.66407
593
8.66253
592
8.661
585
8.65946
569
8.65793
576
8.65639
589
8.65486
551
8.65332
590
8.65179
577
8.65025
583
8.64872
587
8.64718
572
8.64565
595
8.64411
612
8.64417
566
8.64468
588
8.64518
616
8.64569
628
8.6462
626
8.6467
588
8.64721
601
8.64772
601
8.64822
569
8.64873
585
8.64924
605
8.64974
624
8.65025
581
8.65075
599
8.65126
613
8.65177
568
8.65228
583
8.65278
620
8.65329
588
8.65379
584
8.6543
614
8.65481
611
8.65531
609
8.65582
626
8.65633
590
8.65683
602
8.65734
599
8.65785
626
8.65835
602
8.65886
636
8.65937
631
8.65987
651
8.66038
640
8.66089
607
8.66139
630
8.6619
644
8.66241
620
8.66291
619
8.66342
637
8.66393
629
8.66317
664
8.66206
658
8.66095
625
8.65984
558
8.65872
551
8.65761
631
8.6565
630
8.65539
621
8.65428
600
8.65317
625
8.65206
618
8.65094
606
8.64983
594
8.64872
635
8.64761
628
8.6465
605
8.64539
622
8.64428
616
8.64317
629
8.64205
664
8.64094
643
8.63983
639
8.63872
629
8.63761
605
8.6365
635
8.63539
642
8.63427
621
8.63316
602
8.63205
567
8.63094
563
8.62983
555
8.62872
549
8.62761
526
8.6265
505
8.62538
491
8.62427
471
8.62316
473
8.62205
485
8.62094
474
8.61983
508
8.61872
547
8.6176
551
8.61649
709
8.61538
1056
8.61427
1559
8.61316
1807
8.61205
1382
8.61094
651
8.60983
460
8.60871
417
8.6076
402
8.60649
386
8.60538
404
8.60427
365
8.60316
398
8.60205
390
8.60093
385
8.59982
386
8.59871
394
8.5976
385
8.59692
376
8.59635
391
8.59579
399
8.59522
399
8.59466
397
8.5941
375
8.59353
376
8.59297
401
8.5924
381
8.59184
370
8.59128
422
8.59071
411
8.59015
368
8.58958
391
8.58902
425
8.58846
418
8.58789
410
8.58733
408
8.58676
384
8.5862
401
8.58564
402
8.58507
353
8.58451
402
8.58394
393
8.58338
364
8.58282
382
8.58225
374
8.58169
391
8.58112
397
8.58056
406
8.58
391
8.57943
414
8.57887
404
8.5783
412
8.57774
409
8.57718
420
8.57661
403
8.57605
376
8.57548
402
8.57492
388
8.57413
357
8.57328
387
8.57243
395
8.57158
419
8.57074
398
8.56989
400
8.56904
405
8.56819
433
8.56734
404
8.56649
401
8.56564
408
8.56479
408
8.56394
419
8.56309
412
8.56224
445
8.56139
433
8.56055
430
8.5597
404
8.55885
423
8.558
416
8.55715
443
8.5563
422
8.55545
436
8.5546
419
8.55375
419
8.5529
432
8.55205
401
8.5512
407
8.55035
418
8.54951
412
8.54866
431
8.54781
407
8.54696
400
8.54611
402
8.54526
401
8.54441
414
8.54356
432
8.54271
417
8.54186
426
8.54101
425
8.54016
403
8.53932
422
8.53847
420
8.53762
436
8.53677
387
8.53592
399
8.53507
445
8.53422
442
8.53337
423
8.53252
438
8.5335
417
8.535
464
8.5365
421
8.538
436
8.5395
413
8.541
435
8.5425
433
8.544
440
8.5455
428
8.547
443
8.5485
425
8.55
411
8.5515
399
8.553
448
8.5545
447
8.556
430
8.5575
417
8.55899
431
8.56049
433
8.56199
418
8.56349
430
8.56499
430
8.56649
423
8.56799
438
8.56949
461
8.57099
477
8.57249
491
8.57399
459
8.57549
443
8.57699
426
8.57849
433
8.57999
432
8.58149
431
8.58298
447
8.58448
443
8.58598
471
8.58748
453
8.58898
419
8.59048
434
8.59198
456
8.59135
455
8.59011
434
8.58887
434
8.58763
443
8.58639
438
8.58515
444
8.58392
416
8.58268
421
8.58144
461
8.5802
468
8.57896
452
8.57773
464
8.57649
484
8.57525
503
8.57401
453
8.57277
458
8.57154
453
8.5703
425
8.56906
450
8.56782
498
8.56658
495
8.56534
441
8.56411
451
8.56287
472
8.56163
443
8.56039
467
8.55915
446
8.55792
447
8.55668
433
8.55544
445
8.5542
469
8.55296
435
8.55173
458
8.55049
477
8.54925
457
8.54801
451
8.54677
479
8.54553
461
8.5443
455
8.54306
463
8.54182
455
8.54058
488
8.53934
488
8.53811
515
8.53687
457
8.53563
448
8.53439
497
8.53315
504
8.53191
478
8.53068
492
8.52944
478
8.5282
484
8.52696
493
8.52572
483
8.52449
474
8.52325
514
8.52201
515
8.52077
468
8.51953
519
8.5183
513
8.51706
494
8.51582
487
8.51458
495
8.51334
472
8.5121
495
8.51087
500
8.50963
526
8.50839
562
8.50715
531
8.50591
517
8.50468
508
8.50344
530
8.5022
545
8.50096
561
8.49972
517
8.49849
484
8.49725
478
8.49601
487
8.49477
480
8.49353
460
8.49229
444
8.49106
472
8.48982
457
8.48858
412
8.48734
392
8.4861
387
8.48487
385
8.48363
388
8.48239
369
8.48115
324
8.4832
288
8.48617
271
8.48914
274
8.49212
286
8.49509
386
8.49806
570
8.50104
941
8.50401
1749
8.50698
1833
8.50995
984
8.51293
806
8.5159
903
8.51887
1078
8.52185
843
8.52482
314
8.52779
172
8.53077
129
8.53374
151
8.53671
151
8.53969
130
8.54266
149
8.54563
145
8.5486
150
8.55158
132
8.55455
136
8.55752
174
8.5605
193
8.56347
214
8.56644
228
8.56942
196
8.57239
163
8.57536
142
8.57833
147
8.58131
145
8.58428
128
8.58725
132
8.59023
139
8.5932
143
8.59617
119
8.59915
113
8.60212
146
8.60509
130
8.60806
140
8.61104
138
8.61401
126
8.61698
142
8.61996
147
8.62293
130
8.6259
141
8.62888
134
8.63012
140
8.63087
129
8.63163
128
8.63238
142
8.63314
124
8.63389
132
8.63465
143
8.6354
130
8.63616
146
8.63691
135
8.63767
136
8.63842
145
8.63918
140
8.63993
163
8.64069
177
8.64144
179
8.64219
142
8.64295
133
8.6437
125
8.64446
109
8.64521
132
8.64597
148
8.64672
132
8.64748
135
8.64823
136
8.64899
148
8.64974
137
8.6505
130
8.65125
174
8.65201
166
8.65276
133
8.65352
129
8.65427
121
8.65503
121
8.65578
119
8.65654
114
8.65729
109
8.65804
111
8.6588
135
8.65955
119
8.66031
112
8.66106
129
8.66182
132
8.66257
113
8.66333
128
8.66408
134
8.66484
173
8.66559
240
8.66635
262
8.6671
264
8.66786
161
8.66861
121
8.66937
91
8.67012
93
8.67088
102
8.67163
101
8.67239
94
8.67314
112
8.6739
96
8.67465
99
8.6743
104
8.67363
93
8.67297
98
8.6723
111
8.67163
91
8.67097
96
8.6703
99
8.66964
102
8.66897
104
8.6683
109
8.66764
100
8.66697
93
8.66631
105
8.66564
120
8.66498
101
8.66431
103
8.66364
122
8.66298
150
8.66231
165
8.66165
157
8.66098
104
8.66032
98
8.65965
123
8.65898
114
8.65832
111
8.65765
98
8.65699
93
8.65632
97
8.65565
93
8.65499
114
8.65432
114
8.65366
104
8.65299
105
8.65233
97
8.65166
103
8.65099
131
8.65033
118
8.64966
113
8.649
112
8.64833
121
8.64767
115
8.647
112
8.64633
94
8.64567
104
8.645
94
8.64434
95
8.64367
113
8.643
106
8.64234
101
8.64167
106
8.64101
110
8.64034
114
8.63968
121
8.63901
122
8.63834
104
8.63768
115
8.6398
115
8.64272
107
8.64563
112
8.64854
111
8.65146
110
8.65437
101
8.65728
105
8.6602
113
8.66311
112
8.66602
85
8.66894
98
8.67185
119
8.67476
105
8.67768
113
8.68059
101
8.6835
105
8.68642
105
8.68933
107
8.69224
105
8.69516
115
8.69807
115
8.70098
96
8.7039
110
8.70681
124
8.70972
123
8.71264
129
8.71555
113
8.71846
125
8.72137
111
8.72429
109
8.7272
114
8.73011
125
8.73303
108
8.73594
108
8.73885
121
8.74177
114
8.74468
117
8.74759
110
8.75051
117
8.75342
100
8.75633
104
8.75925
114
8.76216
114
8.76507
113
8.76799
103
8.7709
90
8.77381
109
8.77673
116
8.77964
113
8.78255
113
8.78547
107
8.78838
104
8.79129
100
8.79421
111
8.79712
101
8.80003
109
8.80295
118
8.80586
103
8.80877
111
8.81169
121
8.8146
98
8.81751
109
8.82043
90
8.82334
106
8.82625
94
8.82916
102
8.83208
118
8.83499
108
8.8379
109
8.84082
107
8.84373
110
8.84664
132
8.84956
131
8.85247
110
8.85538
155
8.8583
140
8.86121
124
8.86412
96
8.86704
104
8.86995
86
8.87286
98
8.87578
76
8.87869
84
8.8816
110
8.88452
77
8.88743
81
8.89034
82
8.89326
79
8.89617
75
8.89908
63
8.902
78
8.90491
86
8.90782
74
8.91074
92
8.91365
105
8.91656
145
8.91948
198
8.92239
261
8.9253
203
8.92822
160
8.93113
107
8.93404
92
8.93695
77
8.93987
72
8.94051
62
8.94051
79
8.94051
72
8.94051
65
8.94051
80
8.94051
61
8.94051
65
8.94051
54
8.94051
57
8.94051
57
8.94051
62
8.94051
75
8.94051
89
8.94051
80
8.94051
78
8.94051
77
8.94051
79
8.94051
76
8.94051
66
8.94051
60
8.94051
35
8.94051
46
8.94051
38
8.94051
22
8.94051
11
8.94051
7
8.94051
F 1s/5
Not Specified
2017
7
4
13
7
17
0
9
Casa Info Follows
1
Calib M = 282.884 A = 284.6 BE ADD
0
0
0
   XPS     Spectrum    Lens Mode:Hybrid   Resolution:Pass energy 40    Iris(Aper):slot(Slot)
   Acqn. Time(s): 121        Sweeps: 2        Anode:Mono(Al (Mono))(150 W)   Step(meV): 50.0  
   Dwell Time(ms): 150        Charge Neutraliser :On   Acquired On :17/07/04 13:07:17
XPS
84
-3
0
Mono(Al (Mono))
1486.69
150
1e+037
1e+037
6000
6000
1e+037
1e+037
FAT
40
1e+037
-4.45
0
1e+037
1e+037
1e+037
1e+037
F
1s
-1
Kinetic Energy
eV
790.64
0.05
2
Intensity
d
Transmission
d
pulse counting
0.15
2
0
1e+037
1e+037
1e+037
0
806
629
9902
3.41724
3.42712
940
3.42712
877
3.4271
870
3.42707
896
3.42705
917
3.42702
888
3.427
896
3.42698
903
3.42695
911
3.42693
892
3.4269
896
3.42688
878
3.42686
940
3.42683
866
3.42681
878
3.42678
876
3.42676
834
3.42674
815
3.42671
817
3.42669
819
3.42667
794
3.42664
808
3.42662
844
3.42659
851
3.42657
855
3.42655
854
3.42652
819
3.4265
840
3.42647
826
3.42645
803
3.42643
816
3.4264
820
3.42638
792
3.42636
817
3.42633
816
3.42631
822
3.42628
831
3.42626
840
3.42624
855
3.42621
821
3.42619
795
3.42616
802
3.42614
815
3.42612
825
3.42609
806
3.42607
800
3.42605
834
3.42602
798
3.426
824
3.42597
808
3.42595
814
3.42593
816
3.4259
817
3.42588
815
3.42585
795
3.42583
833
3.42581
795
3.42578
822
3.42576
798
3.42573
796
3.42571
782
3.42569
841
3.42566
802
3.42564
826
3.42562
839
3.42559
863
3.42557
799
3.42554
755
3.42552
830
3.4255
816
3.42547
807
3.42545
844
3.42542
873
3.4254
836
3.42538
798
3.42535
842
3.42533
804
3.42531
823
3.42528
843
3.42526
816
3.42523
816
3.42521
814
3.42519
809
3.42516
796
3.42514
816
3.42511
836
3.42509
776
3.42507
805
3.42504
829
3.42502
824
3.425
801
3.42497
847
3.42495
844
3.42492
827
3.4249
851
3.42488
798
3.42485
804
3.42483
797
3.4248
821
3.42478
850
3.42476
841
3.42473
809
3.42471
879
3.42469
807
3.42466
855
3.42464
849
3.42461
833
3.42459
888
3.42457
860
3.42454
848
3.42452
823
3.42449
866
3.42447
840
3.42445
868
3.42442
884
3.4244
896
3.42437
916
3.42435
885
3.42433
926
3.4243
923
3.42428
934
3.42426
933
3.42423
928
3.42421
934
3.42418
979
3.42416
969
3.42414
1003
3.42411
971
3.42409
1019
3.42406
1021
3.42404
996
3.42402
1037
3.42399
986
3.42397
1025
3.42395
1089
3.42392
1140
3.4239
1146
3.42387
1220
3.42385
1170
3.42383
1217
3.4238
1271
3.42378
1340
3.42375
1318
3.42373
1375
3.42371
1491
3.42368
1498
3.42366
1573
3.42364
1629
3.42361
1676
3.42359
1807
3.42356
1866
3.42354
1911
3.42352
1994
3.42349
2143
3.42347
2215
3.42344
2373
3.42342
2552
3.4234
2668
3.42337
2775
3.42335
2949
3.42333
3157
3.4233
3232
3.42328
3454
3.42325
3755
3.42323
3788
3.42321
4105
3.42318
4352
3.42316
4648
3.42313
4860
3.42311
5043
3.42309
5284
3.42306
5629
3.42304
5929
3.42301
6281
3.42299
6533
3.42297
6830
3.42294
7196
3.42292
7574
3.4229
7737
3.42287
7947
3.42285
8427
3.42282
8720
3.4228
8881
3.42278
9103
3.42275
9377
3.42273
9445
3.4227
9554
3.42268
9615
3.42266
9899
3.42263
9902
3.42261
9692
3.42259
9710
3.42256
9716
3.42254
9698
3.42251
9460
3.42249
9295
3.42247
8967
3.42244
8898
3.42242
8637
3.42239
8288
3.42237
8113
3.42235
7704
3.42232
7248
3.4223
6842
3.42228
6623
3.42225
6225
3.42223
5887
3.4222
5493
3.42218
5182
3.42216
4864
3.42213
4533
3.42211
4246
3.42208
3951
3.42206
3658
3.42204
3405
3.42201
3156
3.42199
3040
3.42196
2816
3.42194
2485
3.42192
2291
3.42189
2187
3.42187
2093
3.42185
1971
3.42182
1827
3.4218
1739
3.42177
1685
3.42175
1560
3.42173
1432
3.4217
1366
3.42168
1324
3.42165
1232
3.42163
1212
3.42161
1191
3.42158
1098
3.42156
1074
3.42154
1054
3.42151
1055
3.42149
1023
3.42146
1014
3.42144
1012
3.42142
993
3.42139
959
3.42137
897
3.42134
898
3.42132
906
3.4213
906
3.42127
877
3.42125
924
3.42123
854
3.4212
914
3.42118
843
3.42115
855
3.42113
850
3.42111
884
3.42108
866
3.42106
908
3.42103
831
3.42101
891
3.42099
879
3.42096
868
3.42094
841
3.42091
875
3.42089
872
3.42087
848
3.42084
819
3.42082
839
3.4208
849
3.42077
825
3.42075
844
3.42072
842
3.4207
842
3.42068
820
3.42065
785
3.42063
835
3.4206
748
3.42058
836
3.42056
831
3.42053
811
3.42051
847
3.42049
800
3.42046
776
3.42044
795
3.42041
798
3.42039
767
3.42037
760
3.42034
756
3.42032
744
3.42029
789
3.42027
771
3.42025
758
3.42022
761
3.4202
745
3.42018
760
3.42015
752
3.42013
731
3.4201
730
3.42008
697
3.42006
709
3.42003
738
3.42001
767
3.41998
714
3.41996
707
3.41994
671
3.41991
724
3.41989
700
3.41986
707
3.41984
672
3.41982
704
3.41979
711
3.41977
698
3.41975
720
3.41972
701
3.4197
707
3.41967
713
3.41965
705
3.41963
712
3.4196
705
3.41958
693
3.41955
715
3.41953
746
3.41951
750
3.41948
696
3.41946
718
3.41944
711
3.41941
689
3.41939
705
3.41936
687
3.41934
653
3.41932
710
3.41929
682
3.41927
703
3.41924
704
3.41922
667
3.4192
716
3.41917
672
3.41915
711
3.41913
693
3.4191
688
3.41908
665
3.41905
671
3.41903
685
3.41901
641
3.41898
698
3.41896
719
3.41893
709
3.41891
753
3.41889
675
3.41886
663
3.41884
725
3.41881
715
3.41879
739
3.41877
701
3.41874
688
3.41872
702
3.4187
671
3.41867
658
3.41865
662
3.41862
691
3.4186
686
3.41858
669
3.41855
670
3.41853
684
3.4185
700
3.41848
722
3.41846
662
3.41843
707
3.41841
669
3.41839
699
3.41836
722
3.41834
686
3.41831
658
3.41829
713
3.41827
695
3.41824
692
3.41822
694
3.41819
682
3.41817
695
3.41815
686
3.41812
672
3.4181
675
3.41808
646
3.41805
669
3.41803
706
3.418
676
3.41798
679
3.41796
739
3.41793
686
3.4179
700
3.41786
670
3.41781
647
3.41777
659
3.41773
629
3.41769
704
3.41765
699
3.41761
683
3.41757
694
3.41753
723
3.41748
688
3.41744
696
3.4174
691
3.41736
715
3.41732
703
3.41728
717
3.41724
O 1s/6
Not Specified
2017
7
4
13
7
17
0
9
Casa Info Follows
1
Calib M = 282.884 A = 284.6 BE ADD
0
0
0
   XPS     Spectrum    Lens Mode:Hybrid   Resolution:Pass energy 40    Iris(Aper):slot(Slot)
   Acqn. Time(s): 162        Sweeps: 3        Anode:Mono(Al (Mono))(150 W)   Step(meV): 50.0  
   Dwell Time(ms): 150        Charge Neutraliser :On   Acquired On :17/07/04 13:07:17
XPS
84
-3
0
Mono(Al (Mono))
1486.69
150
1e+037
1e+037
6000
6000
1e+037
1e+037
FAT
40
1e+037
-4.45
0
1e+037
1e+037
1e+037
1e+037
O
1s
-1
Kinetic Energy
eV
946.69
0.05
2
Intensity
d
Transmission
d
pulse counting
0.15
3
0
1e+037
1e+037
1e+037
0
722
650
3628
3.32569
3.34183
844
3.34183
894
3.34178
854
3.34174
858
3.34169
877
3.34165
854
3.3416
860
3.34156
894
3.34151
882
3.34147
873
3.34142
861
3.34138
874
3.34133
835
3.34129
882
3.34124
855
3.3412
839
3.34115
862
3.34111
898
3.34107
910
3.34102
852
3.34098
808
3.34093
843
3.34089
847
3.34084
862
3.3408
814
3.34075
859
3.34071
876
3.34066
822
3.34062
854
3.34057
864
3.34053
881
3.34048
858
3.34044
837
3.34039
826
3.34035
812
3.3403
857
3.34026
847
3.34021
873
3.34017
777
3.34012
843
3.34008
866
3.34003
826
3.33999
779
3.33994
839
3.3399
834
3.33985
825
3.33981
825
3.33976
818
3.33972
825
3.33968
822
3.33963
829
3.33959
845
3.33954
817
3.3395
873
3.33945
818
3.33941
815
3.33936
789
3.33932
824
3.33927
841
3.33923
850
3.33918
839
3.33914
883
3.33909
881
3.33905
810
3.339
834
3.33896
801
3.33891
857
3.33887
838
3.33882
867
3.33878
823
3.33873
843
3.33869
847
3.33864
799
3.3386
828
3.33855
840
3.33851
863
3.33846
879
3.33842
901
3.33837
879
3.33833
891
3.33829
854
3.33824
864
3.3382
803
3.33815
824
3.33811
855
3.33806
838
3.33802
855
3.33797
866
3.33793
853
3.33788
860
3.33784
883
3.33779
885
3.33775
889
3.3377
886
3.33766
867
3.33761
864
3.33757
840
3.33752
845
3.33748
860
3.33743
920
3.33739
861
3.33734
861
3.3373
878
3.33725
899
3.33721
870
3.33716
881
3.33712
900
3.33707
942
3.33703
898
3.33698
918
3.33694
883
3.3369
933
3.33685
922
3.33681
902
3.33676
913
3.33672
889
3.33667
914
3.33663
942
3.33658
988
3.33654
994
3.33649
933
3.33645
1006
3.3364
1022
3.33636
1006
3.33631
952
3.33627
989
3.33622
1018
3.33618
1056
3.33613
1016
3.33609
1108
3.33604
1103
3.336
1045
3.33595
1100
3.33591
1116
3.33586
1165
3.33582
1151
3.33577
1130
3.33573
1150
3.33568
1177
3.33564
1231
3.3356
1305
3.33555
1289
3.33551
1331
3.33546
1356
3.33542
1396
3.33537
1402
3.33533
1444
3.33528
1511
3.33524
1498
3.33519
1598
3.33515
1645
3.3351
1687
3.33506
1792
3.33501
1735
3.33497
1780
3.33492
1875
3.33488
1916
3.33483
2025
3.33479
1994
3.33474
1980
3.3347
2116
3.33465
2161
3.33461
2231
3.33456
2310
3.33452
2382
3.33447
2444
3.33443
2619
3.33438
2609
3.33434
2662
3.33429
2605
3.33425
2687
3.33421
2719
3.33416
2798
3.33412
2839
3.33407
2982
3.33403
2938
3.33398
2907
3.33394
3059
3.33389
3124
3.33385
3088
3.3338
3122
3.33376
3233
3.33371
3245
3.33367
3139
3.33362
3244
3.33358
3268
3.33353
3309
3.33349
3380
3.33344
3490
3.3334
3533
3.33335
3567
3.33331
3511
3.33326
3570
3.33322
3532
3.33317
3576
3.33313
3544
3.33308
3628
3.33304
3479
3.33299
3490
3.33295
3566
3.3329
3542
3.33286
3498
3.33282
3401
3.33277
3350
3.33273
3230
3.33268
3168
3.33264
3079
3.33259
2981
3.33255
2968
3.3325
2839
3.33246
2726
3.33241
2625
3.33237
2540
3.33232
2519
3.33228
2346
3.33223
2196
3.33219
2080
3.33214
2044
3.3321
1953
3.33205
1767
3.33201
1713
3.33196
1670
3.33192
1528
3.33187
1490
3.33183
1418
3.33178
1324
3.33174
1311
3.33169
1249
3.33165
1231
3.3316
1198
3.33156
1168
3.33151
1117
3.33147
1031
3.33143
1003
3.33138
1016
3.33134
994
3.33129
993
3.33125
948
3.3312
912
3.33116
925
3.33111
903
3.33107
900
3.33102
835
3.33098
827
3.33093
849
3.33089
834
3.33084
829
3.3308
786
3.33075
819
3.33071
830
3.33066
812
3.33062
816
3.33057
800
3.33053
782
3.33048
750
3.33044
755
3.33039
761
3.33035
787
3.3303
760
3.33026
707
3.33021
710
3.33017
721
3.33012
738
3.33008
709
3.33004
710
3.32999
695
3.32995
705
3.3299
705
3.32986
721
3.32981
685
3.32977
710
3.32972
708
3.32968
709
3.32963
702
3.32959
703
3.32954
674
3.3295
690
3.32945
715
3.32941
680
3.32936
726
3.32932
734
3.32927
704
3.32923
702
3.32918
716
3.32914
705
3.32909
684
3.32905
721
3.329
691
3.32896
726
3.32891
707
3.32887
686
3.32882
652
3.32878
689
3.32873
694
3.32869
737
3.32865
703
3.3286
723
3.32856
680
3.32851
672
3.32847
701
3.32842
650
3.32838
668
3.32833
659
3.32829
686
3.32824
713
3.3282
716
3.32815
701
3.32811
700
3.32806
679
3.32802
674
3.32797
679
3.32793
693
3.32788
666
3.32784
696
3.32779
672
3.32775
712
3.3277
678
3.32766
655
3.32761
705
3.32757
679
3.32752
682
3.32748
694
3.32743
686
3.32739
697
3.32735
712
3.3273
694
3.32726
676
3.32721
679
3.32717
699
3.32712
697
3.32708
677
3.32703
668
3.32699
663
3.32694
668
3.3269
710
3.32685
720
3.32681
706
3.32676
694
3.32672
687
3.32667
703
3.32663
707
3.32658
669
3.32654
712
3.32649
717
3.32645
698
3.3264
670
3.32636
681
3.32631
698
3.32627
696
3.32622
691
3.32618
696
3.32613
690
3.32609
679
3.32604
661
3.326
695
3.32596
687
3.32591
677
3.32587
671
3.32582
703
3.32578
722
3.32573
657
3.32569
C 1s/7
Not Specified
2017
7
4
13
7
17
0
9
Casa Info Follows
1
Calib M = 282.884 A = 284.6 BE ADD
0
0
0
   XPS     Spectrum    Lens Mode:Hybrid   Resolution:Pass energy 40    Iris(Aper):slot(Slot)
   Acqn. Time(s): 138        Sweeps: 2        Anode:Mono(Al (Mono))(150 W)   Step(meV): 50.0  
   Dwell Time(ms): 150        Charge Neutraliser :On   Acquired On :17/07/04 13:07:17
XPS
84
-3
0
Mono(Al (Mono))
1486.69
150
1e+037
1e+037
6000
6000
1e+037
1e+037
FAT
40
1e+037
-4.45
0
1e+037
1e+037
1e+037
1e+037
C
1s
-1
Kinetic Energy
eV
1190.19
0.05
2
Intensity
d
Transmission
d
pulse counting
0.15
2
0
1e+037
1e+037
1e+037
0
922
139
3122
3.16755
3.19198
355
3.16755
375
3.1676
326
3.16765
315
3.16771
321
3.16776
327
3.16781
338
3.16787
340
3.16792
310
3.16797
336
3.16802
352
3.16808
344
3.16813
338
3.16818
349
3.16824
335
3.16829
323
3.16834
309
3.1684
342
3.16845
334
3.1685
344
3.16856
351
3.16861
294
3.16866
328
3.16871
344
3.16877
340
3.16882
337
3.16887
345
3.16893
318
3.16898
355
3.16903
332
3.16909
323
3.16914
330
3.16919
331
3.16925
296
3.1693
307
3.16935
283
3.16941
306
3.16946
300
3.16951
321
3.16956
318
3.16962
310
3.16967
288
3.16972
317
3.16978
313
3.16983
345
3.16988
295
3.16994
329
3.16999
316
3.17004
333
3.1701
321
3.17015
299
3.1702
316
3.17025
287
3.17031
293
3.17036
303
3.17041
317
3.17047
307
3.17052
329
3.17057
313
3.17063
300
3.17068
310
3.17073
308
3.17079
313
3.17084
304
3.17089
304
3.17095
318
3.171
334
3.17105
275
3.1711
292
3.17116
299
3.17121
310
3.17126
328
3.17132
289
3.17137
281
3.17142
313
3.17148
339
3.17153
312
3.17158
323
3.17164
313
3.17169
308
3.17174
313
3.17179
304
3.17185
319
3.1719
337
3.17195
348
3.17201
319
3.17206
327
3.17211
309
3.17217
320
3.17222
337
3.17227
308
3.17233
365
3.17238
317
3.17243
322
3.17249
317
3.17254
320
3.17259
330
3.17264
341
3.1727
331
3.17275
332
3.1728
298
3.17286
340
3.17291
316
3.17296
359
3.17302
370
3.17307
338
3.17312
334
3.17318
357
3.17323
335
3.17328
364
3.17334
379
3.17339
393
3.17344
384
3.17349
381
3.17355
427
3.1736
384
3.17365
427
3.17371
438
3.17376
459
3.17381
450
3.17387
464
3.17392
502
3.17397
477
3.17403
517
3.17408
520
3.17413
540
3.17418
555
3.17424
577
3.17429
595
3.17434
592
3.1744
642
3.17445
634
3.1745
640
3.17456
649
3.17461
682
3.17466
696
3.17472
681
3.17477
711
3.17482
739
3.17488
728
3.17493
756
3.17498
781
3.17503
797
3.17509
784
3.17514
827
3.17519
850
3.17525
913
3.1753
985
3.17535
985
3.17541
973
3.17546
1064
3.17551
1101
3.17557
1113
3.17562
1158
3.17567
1267
3.17572
1277
3.17578
1281
3.17583
1422
3.17588
1534
3.17594
1631
3.17599
1745
3.17604
1806
3.1761
2036
3.17615
2169
3.1762
2247
3.17626
2365
3.17631
2514
3.17636
2580
3.17642
2673
3.17647
2711
3.17652
2822
3.17657
2920
3.17663
3046
3.17668
3077
3.17673
3064
3.17679
3122
3.17684
3114
3.17689
3078
3.17695
3027
3.177
3001
3.17705
2919
3.17711
2762
3.17716
2735
3.17721
2561
3.17726
2370
3.17732
2240
3.17737
2192
3.17742
2101
3.17748
1928
3.17753
1807
3.17758
1664
3.17764
1620
3.17769
1492
3.17774
1416
3.1778
1348
3.17785
1243
3.1779
1180
3.17796
1084
3.17801
1073
3.17806
976
3.17811
922
3.17817
944
3.17822
867
3.17827
872
3.17833
868
3.17838
798
3.17843
834
3.17849
771
3.17854
733
3.17859
794
3.17865
831
3.1787
832
3.17875
801
3.17881
788
3.17886
827
3.17891
826
3.17896
820
3.17902
882
3.17907
840
3.17912
838
3.17918
875
3.17923
906
3.17928
906
3.17934
920
3.17939
975
3.17944
939
3.1795
971
3.17955
977
3.1796
1022
3.17965
978
3.17971
926
3.17976
1011
3.17981
997
3.17987
1025
3.17992
968
3.17997
1004
3.18003
1029
3.18008
1048
3.18013
978
3.18019
1014
3.18024
1002
3.18029
1011
3.18035
1017
3.1804
1039
3.18045
1021
3.1805
1066
3.18056
1083
3.18061
1003
3.18066
1029
3.18072
1106
3.18077
1150
3.18082
1104
3.18088
1079
3.18093
1139
3.18098
1134
3.18104
1163
3.18109
1177
3.18114
1239
3.1812
1230
3.18125
1325
3.1813
1368
3.18135
1322
3.18141
1339
3.18146
1442
3.18151
1454
3.18157
1454
3.18162
1502
3.18167
1582
3.18173
1588
3.18178
1648
3.18183
1603
3.18189
1606
3.18194
1623
3.18199
1604
3.18204
1596
3.1821
1554
3.18215
1582
3.1822
1511
3.18226
1494
3.18231
1405
3.18236
1340
3.18242
1261
3.18247
1176
3.18252
1172
3.18258
1072
3.18263
993
3.18268
891
3.18274
823
3.18279
764
3.18284
704
3.18289
646
3.18295
573
3.183
566
3.18305
490
3.18311
451
3.18316
436
3.18321
415
3.18327
377
3.18332
320
3.18337
305
3.18343
283
3.18348
264
3.18353
251
3.18358
239
3.18364
233
3.18369
226
3.18374
197
3.1838
210
3.18385
207
3.1839
191
3.18396
207
3.18401
186
3.18406
219
3.18412
188
3.18417
193
3.18422
197
3.18428
184
3.18433
179
3.18438
183
3.18443
164
3.18449
188
3.18454
168
3.18459
178
3.18465
191
3.1847
174
3.18475
179
3.18481
174
3.18486
162
3.18491
167
3.18497
183
3.18502
174
3.18507
173
3.18512
158
3.18518
152
3.18523
182
3.18528
167
3.18534
179
3.18539
170
3.18544
185
3.1855
172
3.18555
168
3.1856
184
3.18566
179
3.18571
180
3.18576
183
3.18582
185
3.18587
178
3.18592
185
3.18597
179
3.18603
165
3.18608
166
3.18613
150
3.18619
195
3.18624
177
3.18629
159
3.18635
166
3.1864
148
3.18645
144
3.18651
163
3.18656
148
3.18661
168
3.18667
167
3.18672
173
3.18677
174
3.18682
163
3.18688
183
3.18693
167
3.18698
170
3.18704
190
3.18709
190
3.18714
183
3.1872
159
3.18725
175
3.1873
148
3.18736
169
3.18741
173
3.18746
175
3.18751
160
3.18757
173
3.18762
167
3.18767
150
3.18773
149
3.18778
186
3.18783
188
3.18789
169
3.18794
168
3.18799
168
3.18805
162
3.1881
167
3.18815
172
3.18821
175
3.18826
174
3.18831
193
3.18836
175
3.18842
164
3.18847
139
3.18852
164
3.18858
164
3.18863
168
3.18868
163
3.18874
157
3.18879
153
3.18884
153
3.1889
166
3.18895
170
3.189
149
3.18905
145
3.18911
154
3.18916
156
3.18921
171
3.18927
168
3.18932
161
3.18937
177
3.18943
159
3.18948
178
3.18953
155
3.18959
164
3.18964
175
3.18969
154
3.18975
139
3.1898
147
3.18985
162
3.1899
140
3.18996
181
3.19001
160
3.19006
161
3.19012
151
3.19017
167
3.19022
158
3.19028
149
3.19033
152
3.19038
156
3.19044
163
3.19049
149
3.19054
162
3.19059
159
3.19065
163
3.1907
151
3.19075
162
3.19081
188
3.19086
157
3.19091
167
3.19097
167
3.19102
172
3.19107
166
3.19113
170
3.19118
166
3.19123
165
3.19129
162
3.19134
187
3.19139
161
3.19144
170
3.1915
159
3.19155
191
3.1916
169
3.19166
168
3.19171
142
3.19176
165
3.19182
190
3.19187
145
3.19192
151
3.19198
end of experiment
