VAMAS Surface Chemical Analysis Standard Data Transfer Format 1988 May 4
Not Specified
Kratos Axis
Not Specified
/d=/data/20170705/2017006144/A5.dset
3
Casa Info Follows
0
SourceAnalyserAngle: Not Specified
MAP
REGULAR
4
2
32768
32768
1
Etch Time
s
0
0
0
0
4
wide/2
Not Specified
2017
7
4
10
54
41
0
21
Casa Info Follows
1
Calib M = 283.101 A = 284.6 BE ADD
6
annot text peak Data 1202.19 1529 RGB(0,0,0) Font(14,18,0,0,Times New Roman) Vertical
C 1s
annot text peak Data 505 2847 RGB(0,0,0) Font(14,18,0,0,Times New Roman) Vertical
O KLL
annot text peak Data 954.191 1478 RGB(0,0,0) Font(14,18,0,0,Times New Roman) Vertical
O 1s
annot text peak Data 642 2561 RGB(0,0,0) Font(14,18,0,0,Times New Roman) Vertical
F KLL
annot text peak Data 798.191 9817 RGB(0,0,0) Font(14,18,0,0,Times New Roman) Vertical
F 1s
annot text peak Data 1453.19 390 RGB(0,0,0) Font(14,18,0,0,Times New Roman) Vertical
F 2s
0
0
   XPS     Spectrum    Lens Mode:Hybrid   Resolution:Pass energy 80    Iris(Aper):slot(Slot)
   Acqn. Time(s): 110        Sweeps: 1        Anode:Mono(Al (Mono))(150 W)   Step(meV): 1000.0
   Dwell Time(ms): 100        Charge Neutraliser :On   Acquired On :17/07/04 10:54:41
XPS
93
-3
0
Mono(Al (Mono))
1486.69
150
1e+037
1e+037
6000
6000
1e+037
1e+037
FAT
80
1e+037
-4.45
0
1e+037
1e+037
1e+037
1e+037
Wide
None
-1
Kinetic Energy
eV
386.69
1
2
Intensity
d
Transmission
d
pulse counting
0.1
1
0
1e+037
1e+037
1e+037
0
2202
2
9817
8.48115
10.2364
2462
10.2364
2596
10.2286
2553
10.2207
2505
10.2129
2515
10.2051
2563
10.1972
2519
10.1894
2550
10.1815
2565
10.1737
2568
10.1658
2583
10.158
2528
10.1502
2538
10.1423
2623
10.1345
2640
10.1266
2526
10.1188
2472
10.1109
2529
10.1031
2553
10.0953
2591
10.0874
2573
10.0796
2528
10.0717
2486
10.0639
2515
10.056
2590
10.0492
2543
10.0427
2582
10.0362
2559
10.0296
2563
10.0231
2543
10.0166
2533
10.0101
2579
10.0035
2600
9.997
2553
9.99047
2670
9.98395
2561
9.97742
2580
9.97089
2565
9.96436
2569
9.95784
2585
9.95131
2589
9.94478
2589
9.93825
2584
9.93173
2621
9.9252
2611
9.91867
2566
9.91215
2537
9.90562
2545
9.89909
2549
9.89256
2498
9.88604
2594
9.87951
2638
9.87298
2665
9.86645
2594
9.85993
2545
9.8534
2567
9.84687
2652
9.84034
2630
9.83382
2585
9.82729
2619
9.82076
2682
9.81423
2656
9.80771
2663
9.80118
2689
9.79465
2730
9.78813
2659
9.7816
2625
9.77507
2657
9.76854
2702
9.76202
2679
9.75549
2616
9.74896
2621
9.74243
2616
9.73591
2691
9.72938
2670
9.72439
2647
9.71983
2703
9.71527
2670
9.71071
2627
9.70615
2750
9.7016
2728
9.69704
2673
9.69248
2684
9.68792
2600
9.68336
2709
9.67881
2747
9.67425
2677
9.66969
2696
9.66513
2747
9.66057
2719
9.65602
2704
9.65146
2705
9.6469
2672
9.64234
2781
9.63778
2771
9.63322
2652
9.62867
2836
9.62411
2780
9.61955
2782
9.61499
2788
9.61043
2694
9.60588
2765
9.60132
2739
9.59676
2732
9.5922
2766
9.58764
2734
9.58309
2747
9.57853
2682
9.57397
2695
9.56941
2714
9.56485
2746
9.56029
2752
9.55574
2803
9.55118
2802
9.54662
2787
9.54206
2695
9.5375
2808
9.53294
2722
9.52839
2860
9.52383
2847
9.51927
2765
9.51471
2815
9.51015
2879
9.5056
2867
9.50104
2896
9.4966
2901
9.49219
2856
9.48778
2842
9.48337
2878
9.47896
2798
9.47455
2792
9.47014
2835
9.46573
2745
9.46132
2762
9.45691
2665
9.45251
2700
9.4481
2699
9.44369
2732
9.43928
2659
9.43487
2622
9.43046
2599
9.42605
2648
9.42164
2675
9.41723
2664
9.41282
2706
9.40841
2609
9.40401
2618
9.3996
2626
9.39519
2691
9.39078
2694
9.38637
2660
9.38196
2728
9.37755
2739
9.37314
2772
9.36873
2700
9.36432
2651
9.35992
2689
9.35551
2663
9.3511
2661
9.34669
2702
9.34228
2618
9.33787
2722
9.33346
2629
9.32905
2643
9.32464
2624
9.32023
2651
9.31583
2734
9.31142
2770
9.30701
2761
9.3026
2651
9.29819
2648
9.29378
2765
9.28937
2768
9.28496
2740
9.28055
2749
9.27708
2771
9.27386
2727
9.27065
2675
9.26744
2689
9.26422
2724
9.26101
2698
9.2578
2762
9.25458
2724
9.25137
2714
9.24816
2698
9.24494
2753
9.24173
2766
9.23852
2834
9.2353
2731
9.23209
2826
9.22888
2819
9.22566
2787
9.22245
2788
9.21924
2840
9.21602
2783
9.21281
2728
9.2096
2670
9.20638
2741
9.20317
2845
9.19996
2774
9.19674
2769
9.19353
2754
9.19032
2791
9.1871
2788
9.18389
2738
9.18068
2710
9.17746
2802
9.17425
2834
9.17104
2805
9.16782
2782
9.16461
2789
9.1614
2828
9.15818
2753
9.15497
2811
9.15176
2857
9.14854
2839
9.14533
2929
9.14212
2907
9.1389
2754
9.13569
2895
9.13247
2870
9.12926
2889
9.12605
2953
9.12284
2972
9.11962
3004
9.11731
2965
9.11525
2927
9.11319
2834
9.11112
2855
9.10906
2804
9.107
2787
9.10494
2774
9.10288
2837
9.10082
2812
9.09876
2873
9.0967
2880
9.09464
2898
9.09258
2929
9.09052
3076
9.08845
3239
9.08639
3222
9.08433
3231
9.08227
3203
9.08021
3102
9.07815
2972
9.07609
3003
9.07403
3032
9.07197
2956
9.06991
2886
9.06785
2814
9.06578
2856
9.06372
2877
9.06166
2732
9.0596
2684
9.05754
2607
9.05548
2577
9.05342
2561
9.05136
2528
9.0493
2538
9.04724
2501
9.04518
2525
9.04311
2577
9.04105
2690
9.03899
2823
9.03693
3043
9.03487
3308
9.03281
3563
9.03075
3960
9.02869
4213
9.02663
4178
9.02457
3863
9.0225
3518
9.02044
3315
9.01838
2972
9.01632
2807
9.01335
2587
9.01012
2412
9.0069
2268
9.00367
2162
9.00044
2065
8.99721
1924
8.99398
1897
8.99076
1850
8.98753
1828
8.9843
1828
8.98107
1799
8.97784
1745
8.97462
1716
8.97139
1757
8.96816
1717
8.96493
1707
8.9617
1759
8.95848
1719
8.95525
1725
8.95202
1709
8.94879
1734
8.94556
1707
8.94234
1751
8.93911
1712
8.93588
1671
8.93265
1746
8.92942
1741
8.9262
1714
8.92297
1707
8.91974
1646
8.91651
1728
8.91328
1674
8.91006
1689
8.90683
1676
8.9036
1743
8.90037
1754
8.89714
1710
8.89392
1657
8.89069
1676
8.88746
1685
8.88483
1722
8.88236
1758
8.8799
1763
8.87743
1684
8.87497
1739
8.87251
1757
8.87004
1687
8.86758
1661
8.86511
1738
8.86265
1715
8.86019
1717
8.85772
1725
8.85526
1735
8.85279
1763
8.85033
1703
8.84786
1769
8.8454
1692
8.84294
1755
8.84047
1684
8.83801
1707
8.83554
1698
8.83308
1754
8.83062
1686
8.82815
1781
8.82569
1709
8.82322
1709
8.82076
1680
8.81829
1706
8.81583
1753
8.81337
1714
8.8109
1725
8.80844
1743
8.80597
1768
8.80351
1740
8.80104
1723
8.79858
1731
8.79612
1728
8.79365
1727
8.79119
1735
8.78872
1733
8.78626
1789
8.7838
1808
8.78133
1760
8.77887
1703
8.7764
1750
8.77394
1782
8.77147
1699
8.76901
1697
8.76655
1718
8.76408
1768
8.76162
1841
8.75915
1768
8.75669
1775
8.75422
1711
8.75176
1652
8.7493
1667
8.74683
1648
8.74437
1645
8.7419
1697
8.73944
1696
8.73885
1704
8.73879
1700
8.73873
1718
8.73867
1799
8.73861
1844
8.73855
1842
8.73849
1888
8.73843
1893
8.73837
1840
8.73831
1790
8.73825
1813
8.73819
1776
8.73813
1735
8.73806
1758
8.738
1820
8.73794
1806
8.73788
1769
8.73782
1787
8.73776
1749
8.7377
1686
8.73764
1585
8.73758
1531
8.73752
1421
8.73746
1309
8.7374
1276
8.73734
1235
8.73728
1171
8.73722
1100
8.73716
992
8.7371
884
8.73704
830
8.73698
747
8.73692
777
8.73686
837
8.7368
1004
8.73674
1529
8.73668
3011
8.73662
6278
8.73655
9817
8.73649
8060
8.73643
3105
8.73637
1095
8.73631
695
8.73625
627
8.73619
619
8.73613
634
8.73607
610
8.73601
600
8.73595
590
8.73589
568
8.73468
555
8.73314
568
8.73161
591
8.73007
578
8.72854
606
8.727
584
8.72547
615
8.72393
626
8.7224
627
8.72086
573
8.71933
602
8.71779
596
8.71626
607
8.71472
616
8.71319
585
8.71165
588
8.71012
591
8.70858
572
8.70705
584
8.70551
655
8.70398
599
8.70244
611
8.70091
596
8.69937
587
8.69784
619
8.6963
629
8.69477
622
8.69323
596
8.6917
583
8.69016
590
8.68863
606
8.68709
598
8.68556
639
8.68402
591
8.68249
629
8.68095
650
8.67942
637
8.67788
627
8.67635
595
8.67481
624
8.67328
589
8.67174
596
8.67021
630
8.66867
640
8.66714
627
8.6656
620
8.66407
639
8.66253
577
8.661
567
8.65946
618
8.65793
595
8.65639
600
8.65486
589
8.65332
622
8.65179
643
8.65025
660
8.64872
609
8.64718
623
8.64565
629
8.64411
622
8.64417
638
8.64468
606
8.64518
617
8.64569
597
8.6462
635
8.6467
626
8.64721
632
8.64772
625
8.64822
662
8.64873
625
8.64924
647
8.64974
656
8.65025
611
8.65075
600
8.65126
588
8.65177
624
8.65228
641
8.65278
658
8.65329
629
8.65379
613
8.6543
656
8.65481
654
8.65531
657
8.65582
664
8.65633
605
8.65683
635
8.65734
615
8.65785
636
8.65835
659
8.65886
662
8.65937
651
8.65987
654
8.66038
633
8.66089
669
8.66139
635
8.6619
635
8.66241
646
8.66291
650
8.66342
686
8.66393
636
8.66317
645
8.66206
659
8.66095
586
8.65984
622
8.65872
629
8.65761
663
8.6565
658
8.65539
650
8.65428
628
8.65317
657
8.65206
659
8.65094
626
8.64983
632
8.64872
667
8.64761
639
8.6465
656
8.64539
673
8.64428
666
8.64317
660
8.64205
658
8.64094
646
8.63983
684
8.63872
661
8.63761
651
8.6365
676
8.63539
667
8.63427
611
8.63316
618
8.63205
634
8.63094
636
8.62983
616
8.62872
589
8.62761
590
8.6265
571
8.62538
587
8.62427
556
8.62316
551
8.62205
558
8.62094
583
8.61983
562
8.61872
601
8.6176
751
8.61649
1033
8.61538
1438
8.61427
1478
8.61316
1128
8.61205
691
8.61094
559
8.60983
512
8.60871
513
8.6076
473
8.60649
533
8.60538
524
8.60427
503
8.60316
528
8.60205
516
8.60093
509
8.59982
521
8.59871
496
8.5976
496
8.59692
517
8.59635
478
8.59579
472
8.59522
497
8.59466
502
8.5941
509
8.59353
487
8.59297
509
8.5924
514
8.59184
507
8.59128
499
8.59071
521
8.59015
523
8.58958
515
8.58902
486
8.58846
505
8.58789
495
8.58733
505
8.58676
499
8.5862
511
8.58564
495
8.58507
485
8.58451
496
8.58394
522
8.58338
569
8.58282
512
8.58225
523
8.58169
493
8.58112
496
8.58056
464
8.58
505
8.57943
486
8.57887
514
8.5783
500
8.57774
494
8.57718
508
8.57661
517
8.57605
477
8.57548
517
8.57492
514
8.57413
523
8.57328
525
8.57243
525
8.57158
520
8.57074
517
8.56989
552
8.56904
521
8.56819
510
8.56734
525
8.56649
574
8.56564
523
8.56479
507
8.56394
518
8.56309
536
8.56224
529
8.56139
544
8.56055
546
8.5597
555
8.55885
563
8.558
536
8.55715
529
8.5563
517
8.55545
524
8.5546
540
8.55375
546
8.5529
525
8.55205
558
8.5512
526
8.55035
517
8.54951
522
8.54866
518
8.54781
497
8.54696
554
8.54611
520
8.54526
523
8.54441
547
8.54356
570
8.54271
542
8.54186
522
8.54101
546
8.54016
542
8.53932
502
8.53847
528
8.53762
555
8.53677
529
8.53592
557
8.53507
578
8.53422
606
8.53337
551
8.53252
537
8.5335
526
8.535
576
8.5365
560
8.538
542
8.5395
539
8.541
513
8.5425
523
8.544
523
8.5455
517
8.547
514
8.5485
543
8.55
547
8.5515
560
8.553
507
8.5545
503
8.556
529
8.5575
531
8.55899
537
8.56049
566
8.56199
586
8.56349
556
8.56499
550
8.56649
556
8.56799
581
8.56949
587
8.57099
580
8.57249
556
8.57399
570
8.57549
602
8.57699
574
8.57849
569
8.57999
529
8.58149
539
8.58298
565
8.58448
543
8.58598
564
8.58748
584
8.58898
545
8.59048
605
8.59198
543
8.59135
560
8.59011
542
8.58887
540
8.58763
540
8.58639
539
8.58515
565
8.58392
576
8.58268
588
8.58144
573
8.5802
579
8.57896
585
8.57773
566
8.57649
596
8.57525
572
8.57401
601
8.57277
573
8.57154
591
8.5703
543
8.56906
536
8.56782
544
8.56658
582
8.56534
591
8.56411
580
8.56287
593
8.56163
567
8.56039
609
8.55915
625
8.55792
591
8.55668
560
8.55544
594
8.5542
568
8.55296
584
8.55173
590
8.55049
615
8.54925
585
8.54801
586
8.54677
583
8.54553
623
8.5443
625
8.54306
606
8.54182
631
8.54058
584
8.53934
618
8.53811
630
8.53687
673
8.53563
617
8.53439
599
8.53315
618
8.53191
596
8.53068
602
8.52944
585
8.5282
636
8.52696
616
8.52572
656
8.52449
602
8.52325
632
8.52201
625
8.52077
616
8.51953
628
8.5183
639
8.51706
666
8.51582
668
8.51458
635
8.51334
651
8.5121
700
8.51087
690
8.50963
678
8.50839
679
8.50715
665
8.50591
676
8.50468
643
8.50344
674
8.5022
643
8.50096
666
8.49972
658
8.49849
652
8.49725
676
8.49601
644
8.49477
617
8.49353
602
8.49229
548
8.49106
555
8.48982
534
8.48858
534
8.48734
502
8.4861
449
8.48487
427
8.48363
416
8.48239
364
8.48115
344
8.4832
267
8.48617
246
8.48914
260
8.49212
371
8.49509
615
8.49806
1089
8.50104
1981
8.50401
2842
8.50698
1953
8.50995
1098
8.51293
1051
8.5159
1256
8.51887
1529
8.52185
992
8.52482
294
8.52779
142
8.53077
124
8.53374
94
8.53671
107
8.53969
102
8.54266
105
8.54563
97
8.5486
97
8.55158
103
8.55455
115
8.55752
101
8.5605
126
8.56347
99
8.56644
107
8.56942
103
8.57239
97
8.57536
117
8.57833
114
8.58131
97
8.58428
102
8.58725
96
8.59023
106
8.5932
102
8.59617
97
8.59915
93
8.60212
99
8.60509
99
8.60806
91
8.61104
88
8.61401
105
8.61698
107
8.61996
108
8.62293
120
8.6259
112
8.62888
96
8.63012
111
8.63087
104
8.63163
93
8.63238
103
8.63314
115
8.63389
101
8.63465
113
8.6354
104
8.63616
90
8.63691
81
8.63767
100
8.63842
106
8.63918
113
8.63993
124
8.64069
130
8.64144
119
8.64219
108
8.64295
111
8.6437
111
8.64446
102
8.64521
108
8.64597
110
8.64672
94
8.64748
98
8.64823
116
8.64899
114
8.64974
92
8.6505
121
8.65125
107
8.65201
106
8.65276
97
8.65352
107
8.65427
97
8.65503
116
8.65578
101
8.65654
94
8.65729
104
8.65804
98
8.6588
108
8.65955
99
8.66031
114
8.66106
116
8.66182
109
8.66257
91
8.66333
107
8.66408
117
8.66484
118
8.66559
128
8.66635
107
8.6671
111
8.66786
97
8.66861
112
8.66937
97
8.67012
106
8.67088
104
8.67163
103
8.67239
106
8.67314
89
8.6739
91
8.67465
111
8.6743
106
8.67363
116
8.67297
106
8.6723
113
8.67163
111
8.67097
110
8.6703
116
8.66964
96
8.66897
94
8.6683
108
8.66764
107
8.66697
93
8.66631
97
8.66564
117
8.66498
103
8.66431
129
8.66364
132
8.66298
134
8.66231
142
8.66165
109
8.66098
106
8.66032
97
8.65965
106
8.65898
104
8.65832
108
8.65765
116
8.65699
107
8.65632
109
8.65565
99
8.65499
115
8.65432
107
8.65366
137
8.65299
136
8.65233
140
8.65166
120
8.65099
139
8.65033
115
8.64966
106
8.649
95
8.64833
105
8.64767
114
8.647
113
8.64633
109
8.64567
109
8.645
118
8.64434
99
8.64367
103
8.643
128
8.64234
110
8.64167
111
8.64101
98
8.64034
112
8.63968
115
8.63901
104
8.63834
95
8.63768
117
8.6398
109
8.64272
115
8.64563
115
8.64854
109
8.65146
108
8.65437
103
8.65728
107
8.6602
108
8.66311
130
8.66602
127
8.66894
104
8.67185
117
8.67476
125
8.67768
105
8.68059
120
8.6835
120
8.68642
112
8.68933
132
8.69224
122
8.69516
103
8.69807
106
8.70098
121
8.7039
125
8.70681
111
8.70972
106
8.71264
121
8.71555
126
8.71846
130
8.72137
116
8.72429
135
8.7272
135
8.73011
125
8.73303
125
8.73594
109
8.73885
121
8.74177
115
8.74468
127
8.74759
107
8.75051
116
8.75342
128
8.75633
112
8.75925
144
8.76216
118
8.76507
118
8.76799
129
8.7709
113
8.77381
116
8.77673
134
8.77964
132
8.78255
125
8.78547
120
8.78838
128
8.79129
122
8.79421
113
8.79712
119
8.80003
112
8.80295
138
8.80586
131
8.80877
110
8.81169
104
8.8146
111
8.81751
121
8.82043
114
8.82334
121
8.82625
143
8.82916
151
8.83208
151
8.83499
128
8.8379
130
8.84082
126
8.84373
127
8.84664
133
8.84956
141
8.85247
121
8.85538
125
8.8583
125
8.86121
138
8.86412
112
8.86704
120
8.86995
119
8.87286
120
8.87578
117
8.87869
121
8.8816
113
8.88452
106
8.88743
77
8.89034
96
8.89326
98
8.89617
88
8.89908
107
8.902
97
8.90491
103
8.90782
123
8.91074
155
8.91365
223
8.91656
307
8.91948
385
8.92239
390
8.9253
283
8.92822
174
8.93113
132
8.93404
104
8.93695
72
8.93987
68
8.94051
66
8.94051
67
8.94051
68
8.94051
73
8.94051
83
8.94051
90
8.94051
78
8.94051
73
8.94051
80
8.94051
97
8.94051
88
8.94051
112
8.94051
114
8.94051
108
8.94051
110
8.94051
95
8.94051
110
8.94051
110
8.94051
76
8.94051
42
8.94051
44
8.94051
20
8.94051
13
8.94051
3
8.94051
5
8.94051
2
8.94051
F 1s/5
Not Specified
2017
7
4
13
17
14
0
9
Casa Info Follows
1
Calib M = 283.101 A = 284.6 BE ADD
0
0
0
   XPS     Spectrum    Lens Mode:Hybrid   Resolution:Pass energy 40    Iris(Aper):slot(Slot)
   Acqn. Time(s): 121        Sweeps: 2        Anode:Mono(Al (Mono))(150 W)   Step(meV): 50.0  
   Dwell Time(ms): 150        Charge Neutraliser :On   Acquired On :17/07/04 13:17:14
XPS
93
-3
0
Mono(Al (Mono))
1486.69
150
1e+037
1e+037
6000
6000
1e+037
1e+037
FAT
40
1e+037
-4.45
0
1e+037
1e+037
1e+037
1e+037
F
1s
-1
Kinetic Energy
eV
790.64
0.05
2
Intensity
d
Transmission
d
pulse counting
0.15
2
0
1e+037
1e+037
1e+037
0
806
650
14744
3.41724
3.42712
1003
3.42712
1073
3.4271
1033
3.42707
978
3.42705
986
3.42702
993
3.427
962
3.42698
992
3.42695
981
3.42693
1023
3.4269
963
3.42688
964
3.42686
988
3.42683
966
3.42681
945
3.42678
938
3.42676
929
3.42674
964
3.42671
947
3.42669
960
3.42667
946
3.42664
924
3.42662
898
3.42659
929
3.42657
926
3.42655
941
3.42652
948
3.4265
891
3.42647
934
3.42645
916
3.42643
915
3.4264
914
3.42638
910
3.42636
891
3.42633
903
3.42631
875
3.42628
837
3.42626
906
3.42624
931
3.42621
880
3.42619
858
3.42616
850
3.42614
863
3.42612
870
3.42609
887
3.42607
855
3.42605
902
3.42602
855
3.426
892
3.42597
865
3.42595
846
3.42593
911
3.4259
892
3.42588
860
3.42585
874
3.42583
873
3.42581
896
3.42578
955
3.42576
925
3.42573
887
3.42571
895
3.42569
911
3.42566
894
3.42564
894
3.42562
911
3.42559
889
3.42557
910
3.42554
887
3.42552
949
3.4255
896
3.42547
928
3.42545
913
3.42542
931
3.4254
918
3.42538
922
3.42535
910
3.42533
928
3.42531
893
3.42528
971
3.42526
949
3.42523
961
3.42521
978
3.42519
943
3.42516
929
3.42514
967
3.42511
1003
3.42509
951
3.42507
956
3.42504
961
3.42502
1010
3.425
1009
3.42497
1044
3.42495
1041
3.42492
1014
3.4249
1070
3.42488
1063
3.42485
1082
3.42483
1051
3.4248
1073
3.42478
1107
3.42476
1171
3.42473
1164
3.42471
1148
3.42469
1080
3.42466
1172
3.42464
1189
3.42461
1183
3.42459
1257
3.42457
1304
3.42454
1256
3.42452
1272
3.42449
1318
3.42447
1427
3.42445
1412
3.42442
1456
3.4244
1527
3.42437
1489
3.42435
1492
3.42433
1574
3.4243
1626
3.42428
1672
3.42426
1701
3.42423
1749
3.42421
1883
3.42418
1817
3.42416
1931
3.42414
1967
3.42411
2047
3.42409
2114
3.42406
2198
3.42404
2154
3.42402
2207
3.42399
2446
3.42397
2453
3.42395
2565
3.42392
2673
3.4239
2670
3.42387
2862
3.42385
2992
3.42383
3168
3.4238
3343
3.42378
3380
3.42375
3493
3.42373
3587
3.42371
3746
3.42368
3932
3.42366
4095
3.42364
4317
3.42361
4528
3.42359
4781
3.42356
4955
3.42354
5212
3.42352
5423
3.42349
5703
3.42347
6148
3.42344
6435
3.42342
6639
3.4234
6884
3.42337
7320
3.42335
7562
3.42333
8120
3.4233
8515
3.42328
8809
3.42325
9182
3.42323
9571
3.42321
10024
3.42318
10395
3.42316
10985
3.42313
11184
3.42311
11403
3.42309
11827
3.42306
12280
3.42304
12841
3.42301
13058
3.42299
13252
3.42297
13683
3.42294
14051
3.42292
14085
3.4229
14316
3.42287
14599
3.42285
14643
3.42282
14744
3.4228
14472
3.42278
14708
3.42275
14590
3.42273
14636
3.4227
14154
3.42268
14011
3.42266
13675
3.42263
13450
3.42261
12979
3.42259
12510
3.42256
12228
3.42254
11696
3.42251
11346
3.42249
10806
3.42247
10194
3.42244
9542
3.42242
9092
3.42239
8669
3.42237
8125
3.42235
7773
3.42232
7122
3.4223
6622
3.42228
6119
3.42225
5789
3.42223
5345
3.4222
4939
3.42218
4523
3.42216
4281
3.42213
3952
3.42211
3671
3.42208
3425
3.42206
3202
3.42204
2959
3.42201
2712
3.42199
2522
3.42196
2347
3.42194
2234
3.42192
2139
3.42189
1977
3.42187
1840
3.42185
1800
3.42182
1724
3.4218
1591
3.42177
1492
3.42175
1450
3.42173
1413
3.4217
1379
3.42168
1308
3.42165
1248
3.42163
1211
3.42161
1132
3.42158
1097
3.42156
1054
3.42154
1085
3.42151
1026
3.42149
970
3.42146
1017
3.42144
984
3.42142
983
3.42139
921
3.42137
944
3.42134
946
3.42132
945
3.4213
886
3.42127
893
3.42125
912
3.42123
861
3.4212
870
3.42118
858
3.42115
792
3.42113
844
3.42111
870
3.42108
825
3.42106
857
3.42103
833
3.42101
826
3.42099
816
3.42096
866
3.42094
846
3.42091
797
3.42089
780
3.42087
793
3.42084
784
3.42082
791
3.4208
811
3.42077
787
3.42075
753
3.42072
769
3.4207
734
3.42068
723
3.42065
797
3.42063
734
3.4206
771
3.42058
775
3.42056
746
3.42053
722
3.42051
727
3.42049
778
3.42046
745
3.42044
745
3.42041
752
3.42039
742
3.42037
729
3.42034
706
3.42032
727
3.42029
725
3.42027
720
3.42025
701
3.42022
747
3.4202
728
3.42018
735
3.42015
760
3.42013
722
3.4201
740
3.42008
750
3.42006
736
3.42003
777
3.42001
751
3.41998
769
3.41996
739
3.41994
723
3.41991
726
3.41989
720
3.41986
716
3.41984
687
3.41982
733
3.41979
740
3.41977
717
3.41975
697
3.41972
717
3.4197
680
3.41967
691
3.41965
685
3.41963
650
3.4196
701
3.41958
737
3.41955
724
3.41953
721
3.41951
736
3.41948
724
3.41946
720
3.41944
695
3.41941
714
3.41939
754
3.41936
726
3.41934
694
3.41932
716
3.41929
733
3.41927
727
3.41924
696
3.41922
676
3.4192
734
3.41917
719
3.41915
713
3.41913
662
3.4191
720
3.41908
706
3.41905
725
3.41903
717
3.41901
754
3.41898
735
3.41896
714
3.41893
686
3.41891
672
3.41889
743
3.41886
711
3.41884
742
3.41881
752
3.41879
685
3.41877
748
3.41874
714
3.41872
728
3.4187
739
3.41867
710
3.41865
692
3.41862
684
3.4186
697
3.41858
693
3.41855
691
3.41853
688
3.4185
740
3.41848
718
3.41846
687
3.41843
710
3.41841
684
3.41839
679
3.41836
718
3.41834
682
3.41831
709
3.41829
673
3.41827
697
3.41824
724
3.41822
709
3.41819
702
3.41817
751
3.41815
729
3.41812
682
3.4181
677
3.41808
744
3.41805
707
3.41803
666
3.418
680
3.41798
695
3.41796
700
3.41793
680
3.4179
712
3.41786
716
3.41781
679
3.41777
711
3.41773
691
3.41769
716
3.41765
672
3.41761
701
3.41757
685
3.41753
722
3.41748
705
3.41744
662
3.4174
679
3.41736
684
3.41732
719
3.41728
718
3.41724
O 1s/6
Not Specified
2017
7
4
13
17
14
0
9
Casa Info Follows
1
Calib M = 283.101 A = 284.6 BE ADD
0
0
0
   XPS     Spectrum    Lens Mode:Hybrid   Resolution:Pass energy 40    Iris(Aper):slot(Slot)
   Acqn. Time(s): 162        Sweeps: 3        Anode:Mono(Al (Mono))(150 W)   Step(meV): 50.0  
   Dwell Time(ms): 150        Charge Neutraliser :On   Acquired On :17/07/04 13:17:14
XPS
93
-3
0
Mono(Al (Mono))
1486.69
150
1e+037
1e+037
6000
6000
1e+037
1e+037
FAT
40
1e+037
-4.45
0
1e+037
1e+037
1e+037
1e+037
O
1s
-1
Kinetic Energy
eV
946.69
0.05
2
Intensity
d
Transmission
d
pulse counting
0.15
3
0
1e+037
1e+037
1e+037
0
722
752
2953
3.32569
3.34183
948
3.34183
972
3.34178
975
3.34174
972
3.34169
919
3.34165
943
3.3416
950
3.34156
944
3.34151
947
3.34147
931
3.34142
942
3.34138
949
3.34133
957
3.34129
997
3.34124
936
3.3412
934
3.34115
888
3.34111
907
3.34107
933
3.34102
949
3.34098
943
3.34093
954
3.34089
951
3.34084
903
3.3408
914
3.34075
936
3.34071
916
3.34066
926
3.34062
890
3.34057
942
3.34053
942
3.34048
923
3.34044
914
3.34039
882
3.34035
961
3.3403
920
3.34026
932
3.34021
917
3.34017
956
3.34012
949
3.34008
906
3.34003
923
3.33999
968
3.33994
919
3.3399
969
3.33985
939
3.33981
925
3.33976
943
3.33972
941
3.33968
935
3.33963
955
3.33959
943
3.33954
977
3.3395
1011
3.33945
928
3.33941
981
3.33936
964
3.33932
955
3.33927
951
3.33923
939
3.33918
932
3.33914
921
3.33909
905
3.33905
940
3.339
942
3.33896
950
3.33891
985
3.33887
937
3.33882
971
3.33878
985
3.33873
961
3.33869
951
3.33864
932
3.3386
1011
3.33855
1014
3.33851
961
3.33846
975
3.33842
1010
3.33837
917
3.33833
962
3.33829
940
3.33824
982
3.3382
978
3.33815
935
3.33811
954
3.33806
1005
3.33802
985
3.33797
992
3.33793
1021
3.33788
1045
3.33784
999
3.33779
1010
3.33775
1019
3.3377
1014
3.33766
1019
3.33761
1025
3.33757
999
3.33752
1046
3.33748
1025
3.33743
1049
3.33739
1050
3.33734
1078
3.3373
1084
3.33725
1096
3.33721
1090
3.33716
1075
3.33712
1107
3.33707
1108
3.33703
1138
3.33698
1138
3.33694
1159
3.3369
1163
3.33685
1162
3.33681
1178
3.33676
1201
3.33672
1284
3.33667
1300
3.33663
1219
3.33658
1305
3.33654
1304
3.33649
1321
3.33645
1253
3.3364
1321
3.33636
1402
3.33631
1400
3.33627
1466
3.33622
1463
3.33618
1510
3.33613
1490
3.33609
1465
3.33604
1543
3.336
1572
3.33595
1598
3.33591
1662
3.33586
1701
3.33582
1682
3.33577
1812
3.33573
1817
3.33568
1848
3.33564
1810
3.3356
1932
3.33555
1976
3.33551
2047
3.33546
2031
3.33542
2183
3.33537
2188
3.33533
2202
3.33528
2284
3.33524
2241
3.33519
2285
3.33515
2407
3.3351
2445
3.33506
2475
3.33501
2555
3.33497
2545
3.33492
2592
3.33488
2669
3.33483
2762
3.33479
2726
3.33474
2701
3.3347
2799
3.33465
2846
3.33461
2911
3.33456
2897
3.33452
2866
3.33447
2943
3.33443
2905
3.33438
2845
3.33434
2953
3.33429
2902
3.33425
2911
3.33421
2934
3.33416
2910
3.33412
2928
3.33407
2836
3.33403
2720
3.33398
2767
3.33394
2707
3.33389
2730
3.33385
2659
3.3338
2606
3.33376
2537
3.33371
2557
3.33367
2523
3.33362
2544
3.33358
2503
3.33353
2384
3.33349
2240
3.33344
2262
3.3334
2287
3.33335
2246
3.33331
2127
3.33326
2132
3.33322
2104
3.33317
2104
3.33313
1983
3.33308
1916
3.33304
1871
3.33299
1777
3.33295
1735
3.3329
1751
3.33286
1679
3.33282
1620
3.33277
1581
3.33273
1550
3.33268
1525
3.33264
1469
3.33259
1461
3.33255
1405
3.3325
1314
3.33246
1295
3.33241
1298
3.33237
1246
3.33232
1221
3.33228
1170
3.33223
1115
3.33219
1156
3.33214
1090
3.3321
1085
3.33205
1034
3.33201
1036
3.33196
1040
3.33192
1026
3.33187
1004
3.33183
945
3.33178
966
3.33174
988
3.33169
971
3.33165
910
3.3316
901
3.33156
901
3.33151
897
3.33147
877
3.33143
886
3.33138
916
3.33134
955
3.33129
868
3.33125
890
3.3312
900
3.33116
863
3.33111
881
3.33107
915
3.33102
922
3.33098
897
3.33093
872
3.33089
879
3.33084
881
3.3308
884
3.33075
892
3.33071
903
3.33066
852
3.33062
887
3.33057
880
3.33053
873
3.33048
892
3.33044
894
3.33039
836
3.33035
894
3.3303
897
3.33026
895
3.33021
864
3.33017
859
3.33012
827
3.33008
819
3.33004
863
3.32999
860
3.32995
843
3.3299
827
3.32986
846
3.32981
835
3.32977
847
3.32972
875
3.32968
854
3.32963
941
3.32959
870
3.32954
861
3.3295
835
3.32945
860
3.32941
880
3.32936
817
3.32932
752
3.32927
875
3.32923
852
3.32918
819
3.32914
893
3.32909
899
3.32905
841
3.329
818
3.32896
865
3.32891
869
3.32887
871
3.32882
849
3.32878
855
3.32873
830
3.32869
829
3.32865
822
3.3286
897
3.32856
886
3.32851
844
3.32847
847
3.32842
826
3.32838
846
3.32833
862
3.32829
844
3.32824
913
3.3282
819
3.32815
841
3.32811
810
3.32806
880
3.32802
851
3.32797
845
3.32793
852
3.32788
842
3.32784
850
3.32779
892
3.32775
846
3.3277
862
3.32766
856
3.32761
849
3.32757
882
3.32752
877
3.32748
868
3.32743
854
3.32739
887
3.32735
869
3.3273
866
3.32726
884
3.32721
884
3.32717
873
3.32712
852
3.32708
813
3.32703
876
3.32699
843
3.32694
835
3.3269
839
3.32685
792
3.32681
861
3.32676
839
3.32672
827
3.32667
851
3.32663
851
3.32658
839
3.32654
860
3.32649
860
3.32645
835
3.3264
859
3.32636
844
3.32631
844
3.32627
802
3.32622
850
3.32618
799
3.32613
837
3.32609
839
3.32604
804
3.326
849
3.32596
885
3.32591
869
3.32587
815
3.32582
840
3.32578
834
3.32573
836
3.32569
C 1s/7
Not Specified
2017
7
4
13
17
14
0
9
Casa Info Follows
1
Calib M = 283.101 A = 284.6 BE ADD
0
0
0
   XPS     Spectrum    Lens Mode:Hybrid   Resolution:Pass energy 40    Iris(Aper):slot(Slot)
   Acqn. Time(s): 138        Sweeps: 2        Anode:Mono(Al (Mono))(150 W)   Step(meV): 50.0  
   Dwell Time(ms): 150        Charge Neutraliser :On   Acquired On :17/07/04 13:17:14
XPS
93
-3
0
Mono(Al (Mono))
1486.69
150
1e+037
1e+037
6000
6000
1e+037
1e+037
FAT
40
1e+037
-4.45
0
1e+037
1e+037
1e+037
1e+037
C
1s
-1
Kinetic Energy
eV
1190.19
0.05
2
Intensity
d
Transmission
d
pulse counting
0.15
2
0
1e+037
1e+037
1e+037
0
922
95
4124
3.16755
3.19198
360
3.16755
340
3.1676
327
3.16765
328
3.16771
312
3.16776
343
3.16781
323
3.16787
338
3.16792
325
3.16797
317
3.16802
313
3.16808
296
3.16813
318
3.16818
320
3.16824
329
3.16829
313
3.16834
316
3.1684
297
3.16845
303
3.1685
324
3.16856
322
3.16861
319
3.16866
301
3.16871
298
3.16877
340
3.16882
320
3.16887
287
3.16893
282
3.16898
281
3.16903
282
3.16909
294
3.16914
309
3.16919
319
3.16925
300
3.1693
279
3.16935
292
3.16941
305
3.16946
290
3.16951
308
3.16956
311
3.16962
318
3.16967
301
3.16972
271
3.16978
295
3.16983
296
3.16988
282
3.16994
280
3.16999
292
3.17004
318
3.1701
291
3.17015
275
3.1702
286
3.17025
304
3.17031
270
3.17036
273
3.17041
286
3.17047
280
3.17052
297
3.17057
314
3.17063
286
3.17068
284
3.17073
270
3.17079
277
3.17084
304
3.17089
294
3.17095
272
3.171
294
3.17105
283
3.1711
290
3.17116
317
3.17121
275
3.17126
275
3.17132
270
3.17137
296
3.17142
328
3.17148
323
3.17153
314
3.17158
318
3.17164
323
3.17169
293
3.17174
308
3.17179
337
3.17185
338
3.1719
357
3.17195
336
3.17201
356
3.17206
337
3.17211
357
3.17217
350
3.17222
376
3.17227
377
3.17233
426
3.17238
427
3.17243
388
3.17249
397
3.17254
418
3.17259
419
3.17264
460
3.1727
499
3.17275
459
3.1728
481
3.17286
518
3.17291
542
3.17296
520
3.17302
577
3.17307
613
3.17312
601
3.17318
659
3.17323
633
3.17328
652
3.17334
689
3.17339
737
3.17344
789
3.17349
792
3.17355
778
3.1736
818
3.17365
843
3.17371
843
3.17376
940
3.17381
940
3.17387
976
3.17392
1007
3.17397
1043
3.17403
1051
3.17408
1128
3.17413
1098
3.17418
1191
3.17424
1208
3.17429
1251
3.17434
1301
3.1744
1260
3.17445
1362
3.1745
1410
3.17456
1408
3.17461
1460
3.17466
1506
3.17472
1571
3.17477
1608
3.17482
1665
3.17488
1771
3.17493
1763
3.17498
1811
3.17503
1904
3.17509
2006
3.17514
1994
3.17519
2190
3.17525
2330
3.1753
2389
3.17535
2467
3.17541
2612
3.17546
2597
3.17551
2822
3.17557
2883
3.17562
2999
3.17567
3194
3.17572
3280
3.17578
3397
3.17583
3526
3.17588
3735
3.17594
3773
3.17599
3887
3.17604
3947
3.1761
3928
3.17615
4013
3.1762
4015
3.17626
4124
3.17631
4039
3.17636
3985
3.17642
3926
3.17647
3849
3.17652
3687
3.17657
3593
3.17663
3596
3.17668
3458
3.17673
3253
3.17679
3050
3.17684
2913
3.17689
2793
3.17695
2702
3.177
2613
3.17705
2405
3.17711
2223
3.17716
2109
3.17721
2002
3.17726
1846
3.17732
1734
3.17737
1617
3.17742
1550
3.17748
1467
3.17753
1387
3.17758
1354
3.17764
1292
3.17769
1204
3.17774
1200
3.1778
1143
3.17785
1137
3.1779
1102
3.17796
1095
3.17801
1011
3.17806
1015
3.17811
1009
3.17817
1022
3.17822
993
3.17827
1037
3.17833
1037
3.17838
1072
3.17843
1040
3.17849
1021
3.17854
1060
3.17859
1075
3.17865
1041
3.1787
1042
3.17875
1039
3.17881
1078
3.17886
1053
3.17891
1072
3.17896
1025
3.17902
1064
3.17907
1066
3.17912
1053
3.17918
1076
3.17923
1084
3.17928
1096
3.17934
1085
3.17939
1074
3.17944
1035
3.1795
1127
3.17955
1106
3.1796
1122
3.17965
1123
3.17971
1079
3.17976
1068
3.17981
1117
3.17987
1152
3.17992
1192
3.17997
1196
3.18003
1215
3.18008
1283
3.18013
1285
3.18019
1239
3.18024
1272
3.18029
1270
3.18035
1275
3.1804
1343
3.18045
1373
3.1805
1500
3.18056
1424
3.18061
1463
3.18066
1457
3.18072
1543
3.18077
1553
3.18082
1587
3.18088
1632
3.18093
1667
3.18098
1702
3.18104
1718
3.18109
1775
3.18114
1801
3.1812
1817
3.18125
1810
3.1813
1855
3.18135
1809
3.18141
1860
3.18146
1893
3.18151
1957
3.18157
1985
3.18162
1888
3.18167
1978
3.18173
1961
3.18178
1968
3.18183
1903
3.18189
1827
3.18194
1803
3.18199
1810
3.18204
1797
3.1821
1712
3.18215
1630
3.1822
1560
3.18226
1487
3.18231
1412
3.18236
1358
3.18242
1275
3.18247
1208
3.18252
1087
3.18258
1034
3.18263
963
3.18268
866
3.18274
778
3.18279
751
3.18284
738
3.18289
645
3.18295
625
3.183
513
3.18305
481
3.18311
445
3.18316
401
3.18321
376
3.18327
349
3.18332
304
3.18337
254
3.18343
240
3.18348
235
3.18353
241
3.18358
207
3.18364
232
3.18369
170
3.18374
201
3.1838
174
3.18385
178
3.1839
165
3.18396
159
3.18401
159
3.18406
148
3.18412
164
3.18417
139
3.18422
143
3.18428
158
3.18433
168
3.18438
146
3.18443
153
3.18449
121
3.18454
138
3.18459
151
3.18465
141
3.1847
139
3.18475
125
3.18481
133
3.18486
137
3.18491
129
3.18497
116
3.18502
121
3.18507
135
3.18512
132
3.18518
118
3.18523
127
3.18528
99
3.18534
118
3.18539
115
3.18544
122
3.1855
137
3.18555
124
3.1856
125
3.18566
110
3.18571
118
3.18576
121
3.18582
114
3.18587
129
3.18592
120
3.18597
128
3.18603
121
3.18608
117
3.18613
107
3.18619
142
3.18624
140
3.18629
122
3.18635
108
3.1864
119
3.18645
124
3.18651
117
3.18656
118
3.18661
122
3.18667
112
3.18672
114
3.18677
115
3.18682
112
3.18688
129
3.18693
131
3.18698
129
3.18704
139
3.18709
108
3.18714
116
3.1872
118
3.18725
118
3.1873
145
3.18736
125
3.18741
110
3.18746
111
3.18751
99
3.18757
129
3.18762
132
3.18767
123
3.18773
114
3.18778
105
3.18783
124
3.18789
135
3.18794
113
3.18799
114
3.18805
114
3.1881
116
3.18815
120
3.18821
113
3.18826
116
3.18831
103
3.18836
95
3.18842
105
3.18847
126
3.18852
123
3.18858
114
3.18863
119
3.18868
126
3.18874
118
3.18879
101
3.18884
128
3.1889
118
3.18895
118
3.189
123
3.18905
117
3.18911
129
3.18916
106
3.18921
122
3.18927
104
3.18932
135
3.18937
123
3.18943
103
3.18948
127
3.18953
118
3.18959
105
3.18964
120
3.18969
116
3.18975
119
3.1898
118
3.18985
113
3.1899
113
3.18996
104
3.19001
114
3.19006
132
3.19012
112
3.19017
129
3.19022
96
3.19028
123
3.19033
116
3.19038
118
3.19044
135
3.19049
133
3.19054
119
3.19059
122
3.19065
123
3.1907
134
3.19075
112
3.19081
137
3.19086
136
3.19091
115
3.19097
126
3.19102
127
3.19107
116
3.19113
108
3.19118
123
3.19123
107
3.19129
111
3.19134
120
3.19139
109
3.19144
118
3.1915
116
3.19155
136
3.1916
127
3.19166
134
3.19171
106
3.19176
117
3.19182
128
3.19187
113
3.19192
113
3.19198
end of experiment
