VAMAS Surface Chemical Analysis Standard Data Transfer Format 1988 May 4
Not Specified
Kratos Axis
Not Specified
/d=/data/20170705/2017006144/B1.dset
3
Casa Info Follows
0
SourceAnalyserAngle: Not Specified
MAP
REGULAR
4
2
32768
32768
1
Etch Time
s
0
0
0
0
4
wide/2
Not Specified
2017
7
4
10
57
24
0
25
Casa Info Follows
1
Calib M = 283.02 A = 284.6 BE ADD
8
annot text peak Data 1197.11 1798 RGB(0,0,0) Font(14,18,0,0,Times New Roman) Vertical
C 1s
annot text peak Data 642 1602 RGB(0,0,0) Font(14,18,0,0,Times New Roman) Vertical
F KLL
annot text peak Data 799.11 6179 RGB(0,0,0) Font(14,18,0,0,Times New Roman) Vertical
F 1s
annot text peak Data 510.11 1960 RGB(0,0,0) Font(14,18,0,0,Times New Roman) Vertical
O KLL
annot text peak Data 954.11 1636 RGB(0,0,0) Font(14,18,0,0,Times New Roman) Vertical
O 1s
annot text peak Data 1254.11 117 RGB(0,0,0) Font(14,18,0,0,Times New Roman) Vertical
S 2s
annot text peak Data 1318.11 129 RGB(0,0,0) Font(14,18,0,0,Times New Roman) Vertical
S 2p
annot text peak Data 1453.11 273 RGB(0,0,0) Font(14,18,0,0,Times New Roman) Vertical
F 2s
0
0
   XPS     Spectrum    Lens Mode:Hybrid   Resolution:Pass energy 80    Iris(Aper):slot(Slot)
   Acqn. Time(s): 110        Sweeps: 1        Anode:Mono(Al (Mono))(150 W)   Step(meV): 1000.0
   Dwell Time(ms): 100        Charge Neutraliser :On   Acquired On :17/07/04 10:57:24
XPS
99
6
0
Mono(Al (Mono))
1486.69
150
1e+037
1e+037
6000
6000
1e+037
1e+037
FAT
80
1e+037
-4.45
0
1e+037
1e+037
1e+037
1e+037
Wide
None
-1
Kinetic Energy
eV
386.69
1
2
Intensity
d
Transmission
d
pulse counting
0.1
1
0
1e+037
1e+037
1e+037
0
2202
3
6179
8.48115
10.2364
1647
10.2364
1638
10.2286
1617
10.2207
1614
10.2129
1691
10.2051
1644
10.1972
1678
10.1894
1622
10.1815
1733
10.1737
1707
10.1658
1683
10.158
1633
10.1502
1613
10.1423
1640
10.1345
1638
10.1266
1673
10.1188
1650
10.1109
1605
10.1031
1658
10.0953
1620
10.0874
1689
10.0796
1611
10.0717
1656
10.0639
1636
10.056
1688
10.0492
1646
10.0427
1592
10.0362
1643
10.0296
1737
10.0231
1660
10.0166
1634
10.0101
1654
10.0035
1651
9.997
1686
9.99047
1710
9.98395
1781
9.97742
1716
9.97089
1648
9.96436
1690
9.95784
1690
9.95131
1695
9.94478
1686
9.93825
1699
9.93173
1706
9.9252
1695
9.91867
1781
9.91215
1751
9.90562
1731
9.89909
1693
9.89256
1695
9.88604
1715
9.87951
1742
9.87298
1686
9.86645
1714
9.85993
1762
9.8534
1717
9.84687
1723
9.84034
1721
9.83382
1720
9.82729
1705
9.82076
1706
9.81423
1697
9.80771
1684
9.80118
1682
9.79465
1634
9.78813
1704
9.7816
1746
9.77507
1754
9.76854
1695
9.76202
1782
9.75549
1704
9.74896
1763
9.74243
1738
9.73591
1763
9.72938
1710
9.72439
1707
9.71983
1790
9.71527
1726
9.71071
1762
9.70615
1778
9.7016
1745
9.69704
1700
9.69248
1762
9.68792
1709
9.68336
1721
9.67881
1765
9.67425
1794
9.66969
1764
9.66513
1709
9.66057
1797
9.65602
1791
9.65146
1760
9.6469
1809
9.64234
1851
9.63778
1872
9.63322
1811
9.62867
1758
9.62411
1834
9.61955
1806
9.61499
1812
9.61043
1825
9.60588
1799
9.60132
1795
9.59676
1899
9.5922
1858
9.58764
1822
9.58309
1870
9.57853
1850
9.57397
1785
9.56941
1792
9.56485
1719
9.56029
1732
9.55574
1820
9.55118
1826
9.54662
1770
9.54206
1731
9.5375
1739
9.53294
1745
9.52839
1802
9.52383
1809
9.51927
1851
9.51471
1885
9.51015
1874
9.5056
1924
9.50104
1961
9.4966
1960
9.49219
1867
9.48778
1871
9.48337
1885
9.47896
1871
9.47455
1868
9.47014
1807
9.46573
1783
9.46132
1690
9.45691
1699
9.45251
1669
9.4481
1730
9.44369
1724
9.43928
1649
9.43487
1638
9.43046
1615
9.42605
1546
9.42164
1609
9.41723
1684
9.41282
1692
9.40841
1648
9.40401
1633
9.3996
1662
9.39519
1685
9.39078
1625
9.38637
1640
9.38196
1669
9.37755
1643
9.37314
1559
9.36873
1628
9.36432
1710
9.35992
1655
9.35551
1695
9.3511
1671
9.34669
1670
9.34228
1691
9.33787
1673
9.33346
1686
9.32905
1681
9.32464
1655
9.32023
1697
9.31583
1698
9.31142
1648
9.30701
1659
9.3026
1733
9.29819
1699
9.29378
1683
9.28937
1671
9.28496
1736
9.28055
1640
9.27708
1660
9.27386
1711
9.27065
1654
9.26744
1643
9.26422
1678
9.26101
1706
9.2578
1692
9.25458
1698
9.25137
1723
9.24816
1642
9.24494
1647
9.24173
1747
9.23852
1730
9.2353
1739
9.23209
1718
9.22888
1758
9.22566
1770
9.22245
1688
9.21924
1679
9.21602
1715
9.21281
1748
9.2096
1763
9.20638
1722
9.20317
1688
9.19996
1725
9.19674
1735
9.19353
1696
9.19032
1710
9.1871
1730
9.18389
1693
9.18068
1764
9.17746
1736
9.17425
1759
9.17104
1778
9.16782
1773
9.16461
1771
9.1614
1738
9.15818
1748
9.15497
1788
9.15176
1731
9.14854
1817
9.14533
1828
9.14212
1771
9.1389
1834
9.13569
1842
9.13247
1840
9.12926
1897
9.12605
1866
9.12284
1871
9.11962
1827
9.11731
1860
9.11525
1798
9.11319
1781
9.11112
1815
9.10906
1820
9.107
1737
9.10494
1798
9.10288
1832
9.10082
1819
9.09876
1830
9.0967
1796
9.09464
1853
9.09258
1934
9.09052
1971
9.08845
2008
9.08639
2069
9.08433
2120
9.08227
2098
9.08021
2086
9.07815
2019
9.07609
1962
9.07403
1872
9.07197
1835
9.06991
1867
9.06785
1866
9.06578
1794
9.06372
1723
9.06166
1741
9.0596
1712
9.05754
1627
9.05548
1624
9.05342
1602
9.05136
1614
9.0493
1633
9.04724
1615
9.04518
1661
9.04311
1630
9.04105
1793
9.03899
1877
9.03693
2058
9.03487
2260
9.03281
2513
9.03075
2610
9.02869
2788
9.02663
2725
9.02457
2625
9.0225
2442
9.02044
2247
9.01838
2054
9.01632
1975
9.01335
1745
9.01012
1660
9.0069
1523
9.00367
1487
9.00044
1424
8.99721
1349
8.99398
1287
8.99076
1273
8.98753
1215
8.9843
1183
8.98107
1176
8.97784
1166
8.97462
1195
8.97139
1141
8.96816
1112
8.96493
1107
8.9617
1099
8.95848
1113
8.95525
1116
8.95202
1172
8.94879
1179
8.94556
1108
8.94234
1133
8.93911
1111
8.93588
1094
8.93265
1119
8.92942
1150
8.9262
1154
8.92297
1108
8.91974
1134
8.91651
1113
8.91328
1178
8.91006
1135
8.90683
1138
8.9036
1205
8.90037
1138
8.89714
1124
8.89392
1156
8.89069
1132
8.88746
1139
8.88483
1149
8.88236
1160
8.8799
1177
8.87743
1114
8.87497
1129
8.87251
1147
8.87004
1137
8.86758
1125
8.86511
1176
8.86265
1174
8.86019
1187
8.85772
1180
8.85526
1157
8.85279
1119
8.85033
1189
8.84786
1136
8.8454
1147
8.84294
1174
8.84047
1185
8.83801
1116
8.83554
1115
8.83308
1090
8.83062
1168
8.82815
1172
8.82569
1177
8.82322
1179
8.82076
1127
8.81829
1186
8.81583
1205
8.81337
1153
8.8109
1143
8.80844
1157
8.80597
1176
8.80351
1189
8.80104
1160
8.79858
1149
8.79612
1179
8.79365
1171
8.79119
1212
8.78872
1193
8.78626
1168
8.7838
1177
8.78133
1157
8.77887
1135
8.7764
1152
8.77394
1193
8.77147
1206
8.76901
1176
8.76655
1196
8.76408
1150
8.76162
1160
8.75915
1155
8.75669
1126
8.75422
1122
8.75176
1117
8.7493
1132
8.74683
1151
8.74437
1181
8.7419
1141
8.73944
1147
8.73885
1153
8.73879
1212
8.73873
1216
8.73867
1235
8.73861
1295
8.73855
1265
8.73849
1304
8.73843
1267
8.73837
1275
8.73831
1269
8.73825
1257
8.73819
1206
8.73813
1204
8.73806
1204
8.738
1238
8.73794
1235
8.73788
1187
8.73782
1213
8.73776
1191
8.7377
1073
8.73764
1035
8.73758
1028
8.73752
992
8.73746
964
8.7374
900
8.73734
845
8.73728
865
8.73722
812
8.73716
745
8.7371
724
8.73704
669
8.73698
650
8.73692
692
8.73686
775
8.7368
953
8.73674
1300
8.73668
1993
8.73662
3405
8.73655
6038
8.73649
6179
8.73643
2846
8.73637
1024
8.73631
647
8.73625
571
8.73619
548
8.73613
538
8.73607
538
8.73601
525
8.73595
504
8.73589
547
8.73468
555
8.73314
536
8.73161
530
8.73007
553
8.72854
572
8.727
524
8.72547
534
8.72393
530
8.7224
548
8.72086
517
8.71933
529
8.71779
508
8.71626
500
8.71472
512
8.71319
509
8.71165
512
8.71012
501
8.70858
539
8.70705
545
8.70551
564
8.70398
504
8.70244
543
8.70091
542
8.69937
553
8.69784
565
8.6963
544
8.69477
545
8.69323
526
8.6917
535
8.69016
547
8.68863
550
8.68709
586
8.68556
575
8.68402
559
8.68249
536
8.68095
508
8.67942
578
8.67788
540
8.67635
547
8.67481
521
8.67328
534
8.67174
536
8.67021
555
8.66867
543
8.66714
520
8.6656
544
8.66407
541
8.66253
544
8.661
524
8.65946
561
8.65793
554
8.65639
583
8.65486
539
8.65332
542
8.65179
560
8.65025
543
8.64872
573
8.64718
564
8.64565
562
8.64411
552
8.64417
585
8.64468
607
8.64518
555
8.64569
562
8.6462
530
8.6467
540
8.64721
554
8.64772
557
8.64822
577
8.64873
582
8.64924
570
8.64974
549
8.65025
550
8.65075
562
8.65126
566
8.65177
572
8.65228
547
8.65278
551
8.65329
579
8.65379
548
8.6543
519
8.65481
551
8.65531
578
8.65582
621
8.65633
576
8.65683
588
8.65734
534
8.65785
563
8.65835
534
8.65886
553
8.65937
547
8.65987
570
8.66038
573
8.66089
578
8.66139
589
8.6619
564
8.66241
553
8.66291
565
8.66342
580
8.66393
592
8.66317
539
8.66206
556
8.66095
577
8.65984
568
8.65872
550
8.65761
557
8.6565
530
8.65539
556
8.65428
547
8.65317
547
8.65206
570
8.65094
542
8.64983
548
8.64872
597
8.64761
586
8.6465
592
8.64539
626
8.64428
572
8.64317
641
8.64205
611
8.64094
622
8.63983
570
8.63872
596
8.63761
580
8.6365
594
8.63539
576
8.63427
560
8.63316
573
8.63205
551
8.63094
525
8.62983
479
8.62872
498
8.62761
472
8.6265
453
8.62538
445
8.62427
433
8.62316
419
8.62205
432
8.62094
432
8.61983
423
8.61872
507
8.6176
635
8.61649
779
8.61538
1233
8.61427
1636
8.61316
1472
8.61205
907
8.61094
516
8.60983
372
8.60871
373
8.6076
359
8.60649
393
8.60538
356
8.60427
365
8.60316
347
8.60205
366
8.60093
358
8.59982
337
8.59871
353
8.5976
370
8.59692
370
8.59635
335
8.59579
339
8.59522
353
8.59466
326
8.5941
328
8.59353
345
8.59297
371
8.5924
355
8.59184
349
8.59128
353
8.59071
365
8.59015
351
8.58958
373
8.58902
367
8.58846
368
8.58789
369
8.58733
354
8.58676
372
8.5862
367
8.58564
363
8.58507
385
8.58451
349
8.58394
369
8.58338
362
8.58282
382
8.58225
352
8.58169
357
8.58112
374
8.58056
356
8.58
357
8.57943
354
8.57887
348
8.5783
376
8.57774
357
8.57718
337
8.57661
361
8.57605
363
8.57548
372
8.57492
401
8.57413
391
8.57328
350
8.57243
336
8.57158
358
8.57074
364
8.56989
352
8.56904
354
8.56819
361
8.56734
378
8.56649
380
8.56564
376
8.56479
345
8.56394
369
8.56309
355
8.56224
379
8.56139
356
8.56055
329
8.5597
349
8.55885
364
8.558
361
8.55715
392
8.5563
388
8.55545
352
8.5546
371
8.55375
355
8.5529
367
8.55205
347
8.5512
377
8.55035
354
8.54951
365
8.54866
389
8.54781
399
8.54696
397
8.54611
342
8.54526
371
8.54441
405
8.54356
368
8.54271
378
8.54186
370
8.54101
366
8.54016
347
8.53932
372
8.53847
402
8.53762
346
8.53677
352
8.53592
362
8.53507
363
8.53422
366
8.53337
370
8.53252
392
8.5335
389
8.535
361
8.5365
408
8.538
390
8.5395
399
8.541
401
8.5425
397
8.544
406
8.5455
359
8.547
378
8.5485
401
8.55
381
8.5515
381
8.553
371
8.5545
376
8.556
348
8.5575
346
8.55899
392
8.56049
348
8.56199
375
8.56349
370
8.56499
400
8.56649
408
8.56799
421
8.56949
417
8.57099
469
8.57249
423
8.57399
413
8.57549
395
8.57699
395
8.57849
361
8.57999
370
8.58149
391
8.58298
407
8.58448
383
8.58598
374
8.58748
386
8.58898
372
8.59048
368
8.59198
390
8.59135
384
8.59011
398
8.58887
435
8.58763
381
8.58639
383
8.58515
418
8.58392
396
8.58268
383
8.58144
443
8.5802
398
8.57896
397
8.57773
375
8.57649
390
8.57525
364
8.57401
373
8.57277
394
8.57154
383
8.5703
420
8.56906
409
8.56782
377
8.56658
382
8.56534
385
8.56411
373
8.56287
397
8.56163
404
8.56039
411
8.55915
395
8.55792
429
8.55668
410
8.55544
381
8.5542
421
8.55296
424
8.55173
414
8.55049
405
8.54925
399
8.54801
406
8.54677
445
8.54553
412
8.5443
406
8.54306
410
8.54182
412
8.54058
436
8.53934
415
8.53811
398
8.53687
403
8.53563
416
8.53439
440
8.53315
436
8.53191
438
8.53068
404
8.52944
436
8.5282
402
8.52696
427
8.52572
431
8.52449
420
8.52325
435
8.52201
453
8.52077
424
8.51953
410
8.5183
398
8.51706
412
8.51582
433
8.51458
419
8.51334
451
8.5121
505
8.51087
467
8.50963
458
8.50839
448
8.50715
475
8.50591
467
8.50468
460
8.50344
459
8.5022
452
8.50096
450
8.49972
471
8.49849
439
8.49725
461
8.49601
446
8.49477
395
8.49353
399
8.49229
387
8.49106
367
8.48982
379
8.48858
375
8.48734
349
8.4861
304
8.48487
302
8.48363
320
8.48239
277
8.48115
262
8.4832
231
8.48617
233
8.48914
219
8.49212
272
8.49509
427
8.49806
683
8.50104
1055
8.50401
1798
8.50698
1576
8.50995
942
8.51293
939
8.5159
864
8.51887
805
8.52185
558
8.52482
214
8.52779
98
8.53077
97
8.53374
77
8.53671
78
8.53969
72
8.54266
77
8.54563
88
8.5486
103
8.55158
94
8.55455
80
8.55752
92
8.5605
80
8.56347
76
8.56644
73
8.56942
71
8.57239
78
8.57536
97
8.57833
97
8.58131
84
8.58428
98
8.58725
85
8.59023
97
8.5932
90
8.59617
100
8.59915
95
8.60212
70
8.60509
77
8.60806
102
8.61104
94
8.61401
98
8.61698
77
8.61996
81
8.62293
84
8.6259
78
8.62888
82
8.63012
83
8.63087
81
8.63163
83
8.63238
86
8.63314
85
8.63389
78
8.63465
65
8.6354
81
8.63616
85
8.63691
85
8.63767
83
8.63842
68
8.63918
90
8.63993
122
8.64069
117
8.64144
105
8.64219
113
8.64295
107
8.6437
86
8.64446
82
8.64521
78
8.64597
88
8.64672
79
8.64748
84
8.64823
88
8.64899
85
8.64974
96
8.6505
73
8.65125
72
8.65201
88
8.65276
77
8.65352
69
8.65427
82
8.65503
71
8.65578
74
8.65654
83
8.65729
73
8.65804
69
8.6588
76
8.65955
73
8.66031
62
8.66106
80
8.66182
82
8.66257
73
8.66333
81
8.66408
90
8.66484
95
8.66559
96
8.66635
96
8.6671
75
8.66786
72
8.66861
73
8.66937
82
8.67012
100
8.67088
77
8.67163
55
8.67239
78
8.67314
78
8.6739
80
8.67465
85
8.6743
83
8.67363
76
8.67297
75
8.6723
62
8.67163
69
8.67097
73
8.6703
72
8.66964
80
8.66897
62
8.6683
73
8.66764
73
8.66697
65
8.66631
74
8.66564
65
8.66498
73
8.66431
77
8.66364
80
8.66298
128
8.66231
129
8.66165
118
8.66098
106
8.66032
72
8.65965
57
8.65898
57
8.65832
63
8.65765
57
8.65699
68
8.65632
78
8.65565
80
8.65499
75
8.65432
62
8.65366
70
8.65299
69
8.65233
69
8.65166
68
8.65099
64
8.65033
70
8.64966
69
8.649
72
8.64833
72
8.64767
65
8.647
73
8.64633
66
8.64567
71
8.645
85
8.64434
69
8.64367
64
8.643
81
8.64234
71
8.64167
66
8.64101
68
8.64034
91
8.63968
70
8.63901
76
8.63834
71
8.63768
92
8.6398
65
8.64272
73
8.64563
70
8.64854
76
8.65146
78
8.65437
83
8.65728
81
8.6602
67
8.66311
84
8.66602
86
8.66894
67
8.67185
67
8.67476
61
8.67768
64
8.68059
81
8.6835
72
8.68642
76
8.68933
68
8.69224
70
8.69516
71
8.69807
84
8.70098
76
8.7039
67
8.70681
81
8.70972
67
8.71264
84
8.71555
72
8.71846
67
8.72137
65
8.72429
79
8.7272
80
8.73011
83
8.73303
105
8.73594
78
8.73885
69
8.74177
66
8.74468
79
8.74759
90
8.75051
93
8.75342
81
8.75633
70
8.75925
72
8.76216
82
8.76507
69
8.76799
76
8.7709
94
8.77381
76
8.77673
72
8.77964
85
8.78255
93
8.78547
74
8.78838
82
8.79129
76
8.79421
67
8.79712
77
8.80003
73
8.80295
91
8.80586
80
8.80877
61
8.81169
79
8.8146
82
8.81751
103
8.82043
81
8.82334
72
8.82625
85
8.82916
96
8.83208
87
8.83499
81
8.8379
80
8.84082
82
8.84373
83
8.84664
86
8.84956
95
8.85247
80
8.85538
97
8.8583
93
8.86121
95
8.86412
78
8.86704
89
8.86995
82
8.87286
89
8.87578
90
8.87869
74
8.8816
74
8.88452
59
8.88743
72
8.89034
67
8.89326
56
8.89617
70
8.89908
68
8.902
64
8.90491
65
8.90782
77
8.91074
92
8.91365
137
8.91656
187
8.91948
233
8.92239
273
8.9253
241
8.92822
155
8.93113
97
8.93404
82
8.93695
63
8.93987
74
8.94051
73
8.94051
82
8.94051
63
8.94051
58
8.94051
55
8.94051
61
8.94051
66
8.94051
59
8.94051
55
8.94051
58
8.94051
70
8.94051
70
8.94051
88
8.94051
68
8.94051
73
8.94051
79
8.94051
83
8.94051
92
8.94051
67
8.94051
55
8.94051
40
8.94051
30
8.94051
12
8.94051
8
8.94051
5
8.94051
3
8.94051
F 1s/5
Not Specified
2017
7
4
13
27
27
0
9
Casa Info Follows
1
Calib M = 283.02 A = 284.6 BE ADD
0
0
0
   XPS     Spectrum    Lens Mode:Hybrid   Resolution:Pass energy 40    Iris(Aper):slot(Slot)
   Acqn. Time(s): 121        Sweeps: 2        Anode:Mono(Al (Mono))(150 W)   Step(meV): 50.0  
   Dwell Time(ms): 150        Charge Neutraliser :On   Acquired On :17/07/04 13:27:27
XPS
99
6
0
Mono(Al (Mono))
1486.69
150
1e+037
1e+037
6000
6000
1e+037
1e+037
FAT
40
1e+037
-4.45
0
1e+037
1e+037
1e+037
1e+037
F
1s
-1
Kinetic Energy
eV
790.64
0.05
2
Intensity
d
Transmission
d
pulse counting
0.15
2
0
1e+037
1e+037
1e+037
0
806
560
10177
3.41724
3.42712
842
3.42712
829
3.4271
809
3.42707
778
3.42705
786
3.42702
792
3.427
811
3.42698
789
3.42695
777
3.42693
860
3.4269
747
3.42688
752
3.42686
787
3.42683
768
3.42681
782
3.42678
780
3.42676
775
3.42674
741
3.42671
776
3.42669
746
3.42667
728
3.42664
801
3.42662
773
3.42659
796
3.42657
787
3.42655
755
3.42652
800
3.4265
741
3.42647
748
3.42645
700
3.42643
755
3.4264
787
3.42638
796
3.42636
768
3.42633
764
3.42631
755
3.42628
739
3.42626
769
3.42624
742
3.42621
707
3.42619
698
3.42616
709
3.42614
771
3.42612
722
3.42609
761
3.42607
765
3.42605
755
3.42602
777
3.426
792
3.42597
720
3.42595
776
3.42593
779
3.4259
748
3.42588
750
3.42585
716
3.42583
736
3.42581
772
3.42578
764
3.42576
756
3.42573
782
3.42571
763
3.42569
802
3.42566
815
3.42564
781
3.42562
788
3.42559
802
3.42557
786
3.42554
838
3.42552
781
3.4255
767
3.42547
834
3.42545
843
3.42542
831
3.4254
798
3.42538
818
3.42535
830
3.42533
850
3.42531
830
3.42528
772
3.42526
835
3.42523
807
3.42521
818
3.42519
883
3.42516
861
3.42514
882
3.42511
902
3.42509
854
3.42507
866
3.42504
847
3.42502
921
3.425
920
3.42497
937
3.42495
934
3.42492
906
3.4249
906
3.42488
929
3.42485
913
3.42483
992
3.4248
991
3.42478
978
3.42476
971
3.42473
1024
3.42471
1013
3.42469
1012
3.42466
1038
3.42464
1150
3.42461
1120
3.42459
1144
3.42457
1106
3.42454
1155
3.42452
1217
3.42449
1201
3.42447
1250
3.42445
1256
3.42442
1269
3.4244
1259
3.42437
1278
3.42435
1330
3.42433
1355
3.4243
1362
3.42428
1389
3.42426
1440
3.42423
1467
3.42421
1489
3.42418
1468
3.42416
1615
3.42414
1603
3.42411
1733
3.42409
1666
3.42406
1707
3.42404
1723
3.42402
1789
3.42399
1823
3.42397
1874
3.42395
1935
3.42392
2021
3.4239
2023
3.42387
2049
3.42385
2103
3.42383
2101
3.4238
2188
3.42378
2270
3.42375
2289
3.42373
2392
3.42371
2502
3.42368
2416
3.42366
2528
3.42364
2612
3.42361
2630
3.42359
2733
3.42356
2849
3.42354
2891
3.42352
2961
3.42349
3151
3.42347
3202
3.42344
3354
3.42342
3476
3.4234
3608
3.42337
3708
3.42335
3851
3.42333
4063
3.4233
4241
3.42328
4451
3.42325
4642
3.42323
4671
3.42321
4876
3.42318
5110
3.42316
5400
3.42313
5573
3.42311
5955
3.42309
6161
3.42306
6507
3.42304
6603
3.42301
6945
3.42299
7262
3.42297
7538
3.42294
7940
3.42292
8164
3.4229
8307
3.42287
8530
3.42285
8729
3.42282
9124
3.4228
9342
3.42278
9489
3.42275
9693
3.42273
9677
3.4227
9885
3.42268
10095
3.42266
10058
3.42263
10177
3.42261
9778
3.42259
9860
3.42256
9685
3.42254
9679
3.42251
9228
3.42249
9099
3.42247
8733
3.42244
8618
3.42242
8295
3.42239
7827
3.42237
7533
3.42235
7076
3.42232
6634
3.4223
6278
3.42228
6048
3.42225
5602
3.42223
5207
3.4222
4794
3.42218
4496
3.42216
4396
3.42213
4018
3.42211
3607
3.42208
3318
3.42206
2967
3.42204
2808
3.42201
2562
3.42199
2447
3.42196
2295
3.42194
2141
3.42192
1961
3.42189
1864
3.42187
1708
3.42185
1627
3.42182
1564
3.4218
1453
3.42177
1383
3.42175
1278
3.42173
1278
3.4217
1184
3.42168
1161
3.42165
1121
3.42163
1087
3.42161
1048
3.42158
1011
3.42156
1034
3.42154
955
3.42151
928
3.42149
918
3.42146
885
3.42144
897
3.42142
845
3.42139
843
3.42137
847
3.42134
845
3.42132
824
3.4213
803
3.42127
803
3.42125
817
3.42123
756
3.4212
738
3.42118
740
3.42115
738
3.42113
734
3.42111
749
3.42108
751
3.42106
731
3.42103
740
3.42101
730
3.42099
742
3.42096
744
3.42094
742
3.42091
734
3.42089
703
3.42087
705
3.42084
722
3.42082
721
3.4208
670
3.42077
717
3.42075
680
3.42072
661
3.4207
677
3.42068
669
3.42065
664
3.42063
695
3.4206
671
3.42058
687
3.42056
630
3.42053
661
3.42051
651
3.42049
624
3.42046
683
3.42044
678
3.42041
667
3.42039
671
3.42037
621
3.42034
620
3.42032
649
3.42029
682
3.42027
663
3.42025
669
3.42022
640
3.4202
665
3.42018
659
3.42015
634
3.42013
634
3.4201
635
3.42008
654
3.42006
677
3.42003
639
3.42001
634
3.41998
681
3.41996
660
3.41994
634
3.41991
641
3.41989
631
3.41986
598
3.41984
601
3.41982
654
3.41979
676
3.41977
658
3.41975
608
3.41972
636
3.4197
650
3.41967
652
3.41965
620
3.41963
609
3.4196
616
3.41958
603
3.41955
622
3.41953
656
3.41951
585
3.41948
634
3.41946
636
3.41944
620
3.41941
632
3.41939
652
3.41936
644
3.41934
660
3.41932
623
3.41929
644
3.41927
631
3.41924
638
3.41922
638
3.4192
621
3.41917
599
3.41915
602
3.41913
584
3.4191
618
3.41908
624
3.41905
560
3.41903
604
3.41901
577
3.41898
640
3.41896
629
3.41893
603
3.41891
589
3.41889
632
3.41886
639
3.41884
573
3.41881
597
3.41879
631
3.41877
624
3.41874
602
3.41872
593
3.4187
599
3.41867
608
3.41865
631
3.41862
678
3.4186
620
3.41858
608
3.41855
640
3.41853
644
3.4185
615
3.41848
632
3.41846
632
3.41843
647
3.41841
630
3.41839
627
3.41836
610
3.41834
618
3.41831
649
3.41829
685
3.41827
647
3.41824
622
3.41822
589
3.41819
594
3.41817
618
3.41815
632
3.41812
588
3.4181
669
3.41808
636
3.41805
612
3.41803
640
3.418
604
3.41798
626
3.41796
599
3.41793
615
3.4179
596
3.41786
600
3.41781
613
3.41777
614
3.41773
603
3.41769
608
3.41765
636
3.41761
621
3.41757
597
3.41753
621
3.41748
628
3.41744
633
3.4174
618
3.41736
620
3.41732
616
3.41728
615
3.41724
O 1s/6
Not Specified
2017
7
4
13
27
27
0
9
Casa Info Follows
1
Calib M = 283.02 A = 284.6 BE ADD
0
0
0
   XPS     Spectrum    Lens Mode:Hybrid   Resolution:Pass energy 40    Iris(Aper):slot(Slot)
   Acqn. Time(s): 162        Sweeps: 3        Anode:Mono(Al (Mono))(150 W)   Step(meV): 50.0  
   Dwell Time(ms): 150        Charge Neutraliser :On   Acquired On :17/07/04 13:27:27
XPS
99
6
0
Mono(Al (Mono))
1486.69
150
1e+037
1e+037
6000
6000
1e+037
1e+037
FAT
40
1e+037
-4.45
0
1e+037
1e+037
1e+037
1e+037
O
1s
-1
Kinetic Energy
eV
946.69
0.05
2
Intensity
d
Transmission
d
pulse counting
0.15
3
0
1e+037
1e+037
1e+037
0
722
540
3382
3.32569
3.34183
694
3.34183
739
3.34178
727
3.34174
735
3.34169
709
3.34165
699
3.3416
723
3.34156
718
3.34151
708
3.34147
717
3.34142
701
3.34138
695
3.34133
693
3.34129
706
3.34124
686
3.3412
708
3.34115
727
3.34111
708
3.34107
756
3.34102
729
3.34098
719
3.34093
718
3.34089
668
3.34084
735
3.3408
687
3.34075
677
3.34071
660
3.34066
698
3.34062
747
3.34057
685
3.34053
718
3.34048
709
3.34044
678
3.34039
679
3.34035
688
3.3403
688
3.34026
691
3.34021
705
3.34017
692
3.34012
696
3.34008
733
3.34003
700
3.33999
694
3.33994
704
3.3399
731
3.33985
691
3.33981
700
3.33976
676
3.33972
697
3.33968
687
3.33963
722
3.33959
694
3.33954
677
3.3395
695
3.33945
692
3.33941
720
3.33936
717
3.33932
760
3.33927
708
3.33923
751
3.33918
730
3.33914
717
3.33909
719
3.33905
711
3.339
715
3.33896
747
3.33891
732
3.33887
716
3.33882
753
3.33878
750
3.33873
724
3.33869
675
3.33864
774
3.3386
717
3.33855
713
3.33851
729
3.33846
741
3.33842
746
3.33837
742
3.33833
765
3.33829
749
3.33824
775
3.3382
774
3.33815
773
3.33811
760
3.33806
758
3.33802
755
3.33797
693
3.33793
738
3.33788
750
3.33784
740
3.33779
779
3.33775
773
3.3377
778
3.33766
807
3.33761
781
3.33757
747
3.33752
820
3.33748
782
3.33743
806
3.33739
790
3.33734
750
3.3373
836
3.33725
827
3.33721
796
3.33716
830
3.33712
844
3.33707
835
3.33703
848
3.33698
875
3.33694
896
3.3369
917
3.33685
872
3.33681
880
3.33676
952
3.33672
1003
3.33667
923
3.33663
923
3.33658
910
3.33654
937
3.33649
990
3.33645
967
3.3364
984
3.33636
1013
3.33631
1032
3.33627
1048
3.33622
1047
3.33618
1116
3.33613
1076
3.33609
1112
3.33604
1147
3.336
1161
3.33595
1119
3.33591
1170
3.33586
1215
3.33582
1202
3.33577
1234
3.33573
1248
3.33568
1279
3.33564
1307
3.3356
1341
3.33555
1334
3.33551
1362
3.33546
1372
3.33542
1412
3.33537
1491
3.33533
1514
3.33528
1617
3.33524
1539
3.33519
1623
3.33515
1637
3.3351
1723
3.33506
1827
3.33501
1827
3.33497
1844
3.33492
1895
3.33488
1966
3.33483
2049
3.33479
2033
3.33474
2074
3.3347
2161
3.33465
2325
3.33461
2405
3.33456
2372
3.33452
2467
3.33447
2558
3.33443
2589
3.33438
2688
3.33434
2782
3.33429
2862
3.33425
2835
3.33421
2896
3.33416
3032
3.33412
3086
3.33407
3158
3.33403
3166
3.33398
3227
3.33394
3378
3.33389
3303
3.33385
3361
3.3338
3339
3.33376
3382
3.33371
3291
3.33367
3278
3.33362
3303
3.33358
3226
3.33353
3218
3.33349
3225
3.33344
3250
3.3334
3178
3.33335
3155
3.33331
3054
3.33326
3032
3.33322
2931
3.33317
2892
3.33313
2820
3.33308
2788
3.33304
2626
3.33299
2608
3.33295
2582
3.3329
2463
3.33286
2431
3.33282
2383
3.33277
2243
3.33273
2171
3.33268
2161
3.33264
2030
3.33259
1942
3.33255
1982
3.3325
1856
3.33246
1789
3.33241
1764
3.33237
1727
3.33232
1656
3.33228
1517
3.33223
1501
3.33219
1445
3.33214
1390
3.3321
1299
3.33205
1288
3.33201
1186
3.33196
1148
3.33192
1101
3.33187
1025
3.33183
1025
3.33178
939
3.33174
919
3.33169
895
3.33165
862
3.3316
863
3.33156
827
3.33151
842
3.33147
777
3.33143
773
3.33138
734
3.33134
729
3.33129
694
3.33125
736
3.3312
701
3.33116
664
3.33111
682
3.33107
668
3.33102
649
3.33098
641
3.33093
649
3.33089
621
3.33084
648
3.3308
658
3.33075
642
3.33071
635
3.33066
592
3.33062
632
3.33057
631
3.33053
621
3.33048
629
3.33044
613
3.33039
620
3.33035
612
3.3303
628
3.33026
604
3.33021
593
3.33017
625
3.33012
587
3.33008
638
3.33004
627
3.32999
615
3.32995
606
3.3299
637
3.32986
604
3.32981
580
3.32977
631
3.32972
635
3.32968
636
3.32963
614
3.32959
612
3.32954
621
3.3295
608
3.32945
612
3.32941
601
3.32936
574
3.32932
567
3.32927
568
3.32923
594
3.32918
621
3.32914
610
3.32909
587
3.32905
570
3.329
590
3.32896
590
3.32891
589
3.32887
569
3.32882
594
3.32878
593
3.32873
552
3.32869
604
3.32865
621
3.3286
608
3.32856
600
3.32851
597
3.32847
602
3.32842
599
3.32838
622
3.32833
586
3.32829
610
3.32824
585
3.3282
602
3.32815
548
3.32811
571
3.32806
597
3.32802
619
3.32797
596
3.32793
623
3.32788
637
3.32784
586
3.32779
602
3.32775
606
3.3277
622
3.32766
595
3.32761
591
3.32757
572
3.32752
575
3.32748
595
3.32743
581
3.32739
605
3.32735
588
3.3273
601
3.32726
576
3.32721
571
3.32717
582
3.32712
590
3.32708
575
3.32703
612
3.32699
599
3.32694
601
3.3269
599
3.32685
609
3.32681
570
3.32676
579
3.32672
554
3.32667
589
3.32663
613
3.32658
599
3.32654
582
3.32649
626
3.32645
540
3.3264
577
3.32636
567
3.32631
546
3.32627
560
3.32622
600
3.32618
626
3.32613
609
3.32609
576
3.32604
577
3.326
604
3.32596
613
3.32591
566
3.32587
611
3.32582
609
3.32578
611
3.32573
577
3.32569
C 1s/7
Not Specified
2017
7
4
13
27
27
0
9
Casa Info Follows
1
Calib M = 283.02 A = 284.6 BE ADD
0
0
0
   XPS     Spectrum    Lens Mode:Hybrid   Resolution:Pass energy 40    Iris(Aper):slot(Slot)
   Acqn. Time(s): 138        Sweeps: 2        Anode:Mono(Al (Mono))(150 W)   Step(meV): 50.0  
   Dwell Time(ms): 150        Charge Neutraliser :On   Acquired On :17/07/04 13:27:27
XPS
99
6
0
Mono(Al (Mono))
1486.69
150
1e+037
1e+037
6000
6000
1e+037
1e+037
FAT
40
1e+037
-4.45
0
1e+037
1e+037
1e+037
1e+037
C
1s
-1
Kinetic Energy
eV
1190.19
0.05
2
Intensity
d
Transmission
d
pulse counting
0.15
2
0
1e+037
1e+037
1e+037
0
922
65
2921
3.16755
3.19198
245
3.16755
240
3.1676
208
3.16765
228
3.16771
236
3.16776
253
3.16781
239
3.16787
234
3.16792
231
3.16797
242
3.16802
235
3.16808
230
3.16813
225
3.16818
221
3.16824
239
3.16829
216
3.16834
235
3.1684
246
3.16845
227
3.1685
223
3.16856
200
3.16861
231
3.16866
220
3.16871
217
3.16877
231
3.16882
226
3.16887
223
3.16893
251
3.16898
256
3.16903
213
3.16909
222
3.16914
230
3.16919
209
3.16925
222
3.1693
210
3.16935
217
3.16941
198
3.16946
237
3.16951
220
3.16956
215
3.16962
233
3.16967
218
3.16972
206
3.16978
187
3.16983
218
3.16988
243
3.16994
224
3.16999
215
3.17004
198
3.1701
222
3.17015
234
3.1702
228
3.17025
217
3.17031
231
3.17036
228
3.17041
203
3.17047
220
3.17052
229
3.17057
233
3.17063
241
3.17068
225
3.17073
220
3.17079
247
3.17084
249
3.17089
244
3.17095
230
3.171
247
3.17105
206
3.1711
210
3.17116
234
3.17121
240
3.17126
276
3.17132
243
3.17137
251
3.17142
234
3.17148
260
3.17153
234
3.17158
221
3.17164
263
3.17169
252
3.17174
244
3.17179
256
3.17185
263
3.1719
254
3.17195
258
3.17201
279
3.17206
271
3.17211
267
3.17217
270
3.17222
294
3.17227
317
3.17233
319
3.17238
310
3.17243
305
3.17249
300
3.17254
328
3.17259
331
3.17264
331
3.1727
344
3.17275
354
3.1728
355
3.17286
340
3.17291
345
3.17296
335
3.17302
386
3.17307
372
3.17312
394
3.17318
421
3.17323
420
3.17328
435
3.17334
463
3.17339
489
3.17344
467
3.17349
483
3.17355
476
3.1736
479
3.17365
518
3.17371
519
3.17376
527
3.17381
607
3.17387
608
3.17392
587
3.17397
610
3.17403
635
3.17408
641
3.17413
630
3.17418
686
3.17424
686
3.17429
698
3.17434
728
3.1744
756
3.17445
744
3.1745
718
3.17456
753
3.17461
787
3.17466
731
3.17472
798
3.17477
795
3.17482
831
3.17488
843
3.17493
866
3.17498
820
3.17503
821
3.17509
834
3.17514
906
3.17519
937
3.17525
876
3.1753
868
3.17535
933
3.17541
995
3.17546
1063
3.17551
1065
3.17557
1096
3.17562
1163
3.17567
1257
3.17572
1266
3.17578
1372
3.17583
1374
3.17588
1489
3.17594
1610
3.17599
1676
3.17604
1702
3.1761
1901
3.17615
1958
3.1762
2134
3.17626
2196
3.17631
2337
3.17636
2431
3.17642
2535
3.17647
2661
3.17652
2678
3.17657
2818
3.17663
2921
3.17668
2855
3.17673
2791
3.17679
2839
3.17684
2890
3.17689
2824
3.17695
2787
3.177
2664
3.17705
2530
3.17711
2375
3.17716
2250
3.17721
2136
3.17726
1982
3.17732
1870
3.17737
1713
3.17742
1653
3.17748
1501
3.17753
1384
3.17758
1322
3.17764
1210
3.17769
1103
3.17774
1070
3.1778
986
3.17785
991
3.1779
907
3.17796
905
3.17801
823
3.17806
819
3.17811
794
3.17817
800
3.17822
804
3.17827
798
3.17833
757
3.17838
775
3.17843
763
3.17849
831
3.17854
789
3.17859
768
3.17865
796
3.1787
832
3.17875
822
3.17881
866
3.17886
904
3.17891
901
3.17896
970
3.17902
959
3.17907
1034
3.17912
1061
3.17918
990
3.17923
1063
3.17928
1099
3.17934
1109
3.17939
1101
3.17944
1171
3.1795
1170
3.17955
1192
3.1796
1212
3.17965
1178
3.17971
1201
3.17976
1152
3.17981
1151
3.17987
1124
3.17992
1072
3.17997
1077
3.18003
1069
3.18008
1065
3.18013
1026
3.18019
957
3.18024
949
3.18029
906
3.18035
942
3.1804
923
3.18045
916
3.1805
883
3.18056
848
3.18061
781
3.18066
846
3.18072
835
3.18077
794
3.18082
818
3.18088
875
3.18093
790
3.18098
823
3.18104
827
3.18109
853
3.18114
866
3.1812
886
3.18125
872
3.1813
885
3.18135
926
3.18141
926
3.18146
887
3.18151
963
3.18157
956
3.18162
947
3.18167
983
3.18173
1018
3.18178
993
3.18183
966
3.18189
962
3.18194
951
3.18199
941
3.18204
966
3.1821
881
3.18215
894
3.1822
931
3.18226
840
3.18231
816
3.18236
815
3.18242
744
3.18247
788
3.18252
697
3.18258
660
3.18263
641
3.18268
584
3.18274
560
3.18279
551
3.18284
487
3.18289
451
3.18295
446
3.183
377
3.18305
333
3.18311
336
3.18316
333
3.18321
279
3.18327
240
3.18332
235
3.18337
222
3.18343
197
3.18348
190
3.18353
185
3.18358
160
3.18364
177
3.18369
129
3.18374
141
3.1838
133
3.18385
126
3.1839
126
3.18396
122
3.18401
125
3.18406
111
3.18412
119
3.18417
103
3.18422
116
3.18428
112
3.18433
113
3.18438
104
3.18443
106
3.18449
111
3.18454
130
3.18459
102
3.18465
101
3.1847
110
3.18475
105
3.18481
87
3.18486
99
3.18491
113
3.18497
101
3.18502
109
3.18507
122
3.18512
108
3.18518
91
3.18523
84
3.18528
85
3.18534
105
3.18539
86
3.18544
99
3.1855
95
3.18555
98
3.1856
87
3.18566
74
3.18571
83
3.18576
90
3.18582
78
3.18587
102
3.18592
106
3.18597
88
3.18603
91
3.18608
89
3.18613
91
3.18619
100
3.18624
90
3.18629
87
3.18635
80
3.1864
80
3.18645
90
3.18651
92
3.18656
96
3.18661
99
3.18667
83
3.18672
92
3.18677
91
3.18682
110
3.18688
89
3.18693
80
3.18698
96
3.18704
101
3.18709
95
3.18714
96
3.1872
85
3.18725
100
3.1873
79
3.18736
86
3.18741
91
3.18746
88
3.18751
110
3.18757
108
3.18762
99
3.18767
80
3.18773
79
3.18778
88
3.18783
97
3.18789
85
3.18794
86
3.18799
83
3.18805
76
3.1881
95
3.18815
82
3.18821
80
3.18826
108
3.18831
104
3.18836
85
3.18842
89
3.18847
94
3.18852
76
3.18858
84
3.18863
86
3.18868
86
3.18874
76
3.18879
102
3.18884
86
3.1889
74
3.18895
73
3.189
90
3.18905
107
3.18911
83
3.18916
79
3.18921
75
3.18927
74
3.18932
86
3.18937
103
3.18943
82
3.18948
87
3.18953
91
3.18959
80
3.18964
101
3.18969
81
3.18975
84
3.1898
94
3.18985
92
3.1899
86
3.18996
87
3.19001
90
3.19006
100
3.19012
94
3.19017
74
3.19022
73
3.19028
102
3.19033
109
3.19038
93
3.19044
84
3.19049
106
3.19054
93
3.19059
91
3.19065
80
3.1907
94
3.19075
87
3.19081
91
3.19086
88
3.19091
78
3.19097
93
3.19102
82
3.19107
84
3.19113
92
3.19118
76
3.19123
65
3.19129
96
3.19134
98
3.19139
91
3.19144
93
3.1915
102
3.19155
82
3.1916
101
3.19166
90
3.19171
89
3.19176
92
3.19182
92
3.19187
86
3.19192
99
3.19198
end of experiment
