VAMAS Surface Chemical Analysis Standard Data Transfer Format 1988 May 4
Not Specified
Kratos Axis
Not Specified
/d=/data/20170705/2017006144/B2.dset
3
Casa Info Follows
0
SourceAnalyserAngle: Not Specified
MAP
REGULAR
4
2
32768
32768
1
Etch Time
s
0
0
0
0
4
wide/2
Not Specified
2017
7
4
10
59
57
0
21
Casa Info Follows
1
Calib M = 282.722 A = 284.6 BE ADD
6
annot text peak Data 1201.81 2416 RGB(0,0,0) Font(14,18,0,0,Times New Roman) Vertical
C 1s
annot text peak Data 505 2773 RGB(0,0,0) Font(14,18,0,0,Times New Roman) Vertical
O KLL
annot text peak Data 953.812 2568 RGB(0,0,0) Font(14,18,0,0,Times New Roman) Vertical
O 1s
annot text peak Data 642 2517 RGB(0,0,0) Font(14,18,0,0,Times New Roman) Vertical
F KLL
annot text peak Data 798.812 10224 RGB(0,0,0) Font(14,18,0,0,Times New Roman) Vertical
F 1s
annot text peak Data 1452.81 419 RGB(0,0,0) Font(14,18,0,0,Times New Roman) Vertical
F 2s
0
0
   XPS     Spectrum    Lens Mode:Hybrid   Resolution:Pass energy 80    Iris(Aper):slot(Slot)
   Acqn. Time(s): 110        Sweeps: 1        Anode:Mono(Al (Mono))(150 W)   Step(meV): 1000.0
   Dwell Time(ms): 100        Charge Neutraliser :On   Acquired On :17/07/04 10:59:57
XPS
90
6
0
Mono(Al (Mono))
1486.69
150
1e+037
1e+037
6000
6000
1e+037
1e+037
FAT
80
1e+037
-4.45
0
1e+037
1e+037
1e+037
1e+037
Wide
None
-1
Kinetic Energy
eV
386.69
1
2
Intensity
d
Transmission
d
pulse counting
0.1
1
0
1e+037
1e+037
1e+037
0
2202
1
10224
8.48115
10.2364
2536
10.2364
2581
10.2286
2592
10.2207
2596
10.2129
2486
10.2051
2588
10.1972
2541
10.1894
2564
10.1815
2559
10.1737
2644
10.1658
2627
10.158
2590
10.1502
2564
10.1423
2601
10.1345
2554
10.1266
2623
10.1188
2539
10.1109
2567
10.1031
2500
10.0953
2482
10.0874
2558
10.0796
2487
10.0717
2504
10.0639
2467
10.056
2538
10.0492
2583
10.0427
2556
10.0362
2505
10.0296
2504
10.0231
2636
10.0166
2570
10.0101
2605
10.0035
2610
9.997
2490
9.99047
2509
9.98395
2553
9.97742
2615
9.97089
2646
9.96436
2685
9.95784
2626
9.95131
2615
9.94478
2605
9.93825
2687
9.93173
2638
9.9252
2700
9.91867
2623
9.91215
2611
9.90562
2598
9.89909
2709
9.89256
2568
9.88604
2574
9.87951
2621
9.87298
2596
9.86645
2600
9.85993
2593
9.8534
2640
9.84687
2707
9.84034
2727
9.83382
2616
9.82729
2633
9.82076
2696
9.81423
2654
9.80771
2617
9.80118
2648
9.79465
2760
9.78813
2673
9.7816
2675
9.77507
2645
9.76854
2638
9.76202
2632
9.75549
2697
9.74896
2725
9.74243
2700
9.73591
2658
9.72938
2718
9.72439
2721
9.71983
2683
9.71527
2745
9.71071
2831
9.70615
2760
9.7016
2746
9.69704
2736
9.69248
2761
9.68792
2709
9.68336
2728
9.67881
2713
9.67425
2723
9.66969
2770
9.66513
2760
9.66057
2747
9.65602
2733
9.65146
2718
9.6469
2832
9.64234
2733
9.63778
2685
9.63322
2755
9.62867
2711
9.62411
2776
9.61955
2777
9.61499
2771
9.61043
2822
9.60588
2778
9.60132
2843
9.59676
2747
9.5922
2761
9.58764
2853
9.58309
2784
9.57853
2761
9.57397
2803
9.56941
2756
9.56485
2762
9.56029
2782
9.55574
2748
9.55118
2685
9.54662
2736
9.54206
2688
9.5375
2715
9.53294
2766
9.52839
2768
9.52383
2785
9.51927
2773
9.51471
2829
9.51015
2896
9.5056
2847
9.50104
2927
9.4966
2887
9.49219
2813
9.48778
2825
9.48337
2857
9.47896
2767
9.47455
2841
9.47014
2787
9.46573
2777
9.46132
2729
9.45691
2600
9.45251
2608
9.4481
2678
9.44369
2642
9.43928
2628
9.43487
2572
9.43046
2592
9.42605
2600
9.42164
2604
9.41723
2531
9.41282
2504
9.40841
2625
9.40401
2599
9.3996
2643
9.39519
2576
9.39078
2524
9.38637
2593
9.38196
2626
9.37755
2559
9.37314
2548
9.36873
2584
9.36432
2561
9.35992
2502
9.35551
2550
9.3511
2581
9.34669
2539
9.34228
2520
9.33787
2620
9.33346
2646
9.32905
2556
9.32464
2565
9.32023
2638
9.31583
2606
9.31142
2680
9.30701
2644
9.3026
2590
9.29819
2631
9.29378
2616
9.28937
2566
9.28496
2602
9.28055
2618
9.27708
2616
9.27386
2564
9.27065
2622
9.26744
2604
9.26422
2634
9.26101
2591
9.2578
2618
9.25458
2635
9.25137
2673
9.24816
2674
9.24494
2745
9.24173
2675
9.23852
2731
9.2353
2648
9.23209
2735
9.22888
2691
9.22566
2646
9.22245
2693
9.21924
2671
9.21602
2706
9.21281
2675
9.2096
2703
9.20638
2640
9.20317
2630
9.19996
2659
9.19674
2713
9.19353
2691
9.19032
2692
9.1871
2744
9.18389
2719
9.18068
2732
9.17746
2649
9.17425
2777
9.17104
2785
9.16782
2687
9.16461
2741
9.1614
2739
9.15818
2706
9.15497
2709
9.15176
2791
9.14854
2809
9.14533
2866
9.14212
2836
9.1389
2754
9.13569
2846
9.13247
2882
9.12926
2872
9.12605
2981
9.12284
2976
9.11962
2938
9.11731
2882
9.11525
2804
9.11319
2727
9.11112
2819
9.10906
2706
9.107
2665
9.10494
2717
9.10288
2794
9.10082
2709
9.09876
2698
9.0967
2877
9.09464
2891
9.09258
2892
9.09052
3016
9.08845
3091
9.08639
3100
9.08433
3191
9.08227
3118
9.08021
3158
9.07815
3093
9.07609
3078
9.07403
2999
9.07197
3008
9.06991
2994
9.06785
2936
9.06578
2809
9.06372
2756
9.06166
2676
9.0596
2649
9.05754
2641
9.05548
2610
9.05342
2555
9.05136
2517
9.0493
2443
9.04724
2485
9.04518
2426
9.04311
2548
9.04105
2613
9.03899
2701
9.03693
2883
9.03487
3152
9.03281
3443
9.03075
3650
9.02869
4021
9.02663
4134
9.02457
3886
9.0225
3550
9.02044
3354
9.01838
3085
9.01632
2848
9.01335
2658
9.01012
2595
9.0069
2450
9.00367
2242
9.00044
2174
8.99721
2175
8.99398
1967
8.99076
1981
8.98753
1883
8.9843
1838
8.98107
1889
8.97784
1869
8.97462
1848
8.97139
1796
8.96816
1886
8.96493
1792
8.9617
1819
8.95848
1804
8.95525
1767
8.95202
1785
8.94879
1812
8.94556
1859
8.94234
1820
8.93911
1787
8.93588
1756
8.93265
1763
8.92942
1848
8.9262
1811
8.92297
1830
8.91974
1847
8.91651
1813
8.91328
1852
8.91006
1862
8.90683
1828
8.9036
1811
8.90037
1848
8.89714
1836
8.89392
1717
8.89069
1791
8.88746
1796
8.88483
1841
8.88236
1876
8.8799
1834
8.87743
1784
8.87497
1851
8.87251
1859
8.87004
1810
8.86758
1794
8.86511
1822
8.86265
1885
8.86019
1897
8.85772
1796
8.85526
1817
8.85279
1802
8.85033
1823
8.84786
1821
8.8454
1860
8.84294
1821
8.84047
1811
8.83801
1830
8.83554
1912
8.83308
1854
8.83062
1808
8.82815
1824
8.82569
1786
8.82322
1797
8.82076
1861
8.81829
1857
8.81583
1857
8.81337
1811
8.8109
1864
8.80844
1875
8.80597
1886
8.80351
1846
8.80104
1899
8.79858
1921
8.79612
1878
8.79365
1897
8.79119
1837
8.78872
1812
8.78626
1839
8.7838
1859
8.78133
1883
8.77887
1859
8.7764
1815
8.77394
1871
8.77147
1907
8.76901
1902
8.76655
1911
8.76408
1916
8.76162
1936
8.75915
1844
8.75669
1858
8.75422
1896
8.75176
1839
8.7493
1876
8.74683
1848
8.74437
1816
8.7419
1769
8.73944
1847
8.73885
1874
8.73879
1853
8.73873
1943
8.73867
1947
8.73861
1993
8.73855
1993
8.73849
1958
8.73843
1988
8.73837
1967
8.73831
1969
8.73825
1924
8.73819
1956
8.73813
1915
8.73806
1887
8.738
1930
8.73794
1876
8.73788
1897
8.73782
1809
8.73776
1850
8.7377
1803
8.73764
1768
8.73758
1656
8.73752
1603
8.73746
1553
8.7374
1551
8.73734
1532
8.73728
1420
8.73722
1331
8.73716
1237
8.7371
1215
8.73704
1140
8.73698
1080
8.73692
1021
8.73686
1044
8.7368
1091
8.73674
1300
8.73668
2002
8.73662
4590
8.73655
9589
8.73649
10224
8.73643
4419
8.73637
1547
8.73631
1026
8.73625
933
8.73619
897
8.73613
835
8.73607
871
8.73601
827
8.73595
867
8.73589
840
8.73468
875
8.73314
879
8.73161
847
8.73007
849
8.72854
868
8.727
845
8.72547
891
8.72393
879
8.7224
844
8.72086
803
8.71933
876
8.71779
831
8.71626
852
8.71472
834
8.71319
825
8.71165
835
8.71012
829
8.70858
844
8.70705
872
8.70551
827
8.70398
834
8.70244
826
8.70091
840
8.69937
876
8.69784
886
8.6963
844
8.69477
891
8.69323
888
8.6917
878
8.69016
872
8.68863
845
8.68709
879
8.68556
881
8.68402
888
8.68249
874
8.68095
858
8.67942
880
8.67788
882
8.67635
897
8.67481
863
8.67328
886
8.67174
860
8.67021
881
8.66867
902
8.66714
856
8.6656
861
8.66407
882
8.66253
866
8.661
923
8.65946
910
8.65793
886
8.65639
898
8.65486
916
8.65332
845
8.65179
885
8.65025
910
8.64872
865
8.64718
846
8.64565
902
8.64411
888
8.64417
970
8.64468
919
8.64518
882
8.64569
867
8.6462
923
8.6467
881
8.64721
897
8.64772
889
8.64822
869
8.64873
883
8.64924
847
8.64974
886
8.65025
902
8.65075
924
8.65126
883
8.65177
886
8.65228
861
8.65278
856
8.65329
883
8.65379
889
8.6543
868
8.65481
872
8.65531
890
8.65582
919
8.65633
915
8.65683
887
8.65734
904
8.65785
915
8.65835
910
8.65886
873
8.65937
869
8.65987
879
8.66038
907
8.66089
972
8.66139
919
8.6619
915
8.66241
905
8.66291
884
8.66342
858
8.66393
866
8.66317
859
8.66206
851
8.66095
937
8.65984
965
8.65872
917
8.65761
866
8.6565
878
8.65539
866
8.65428
916
8.65317
912
8.65206
861
8.65094
869
8.64983
851
8.64872
836
8.64761
869
8.6465
823
8.64539
945
8.64428
912
8.64317
972
8.64205
945
8.64094
954
8.63983
986
8.63872
941
8.63761
916
8.6365
908
8.63539
909
8.63427
893
8.63316
877
8.63205
881
8.63094
818
8.62983
801
8.62872
809
8.62761
797
8.6265
788
8.62538
748
8.62427
722
8.62316
728
8.62205
668
8.62094
673
8.61983
724
8.61872
719
8.6176
801
8.61649
1041
8.61538
1717
8.61427
2568
8.61316
2326
8.61205
1370
8.61094
794
8.60983
652
8.60871
599
8.6076
618
8.60649
638
8.60538
617
8.60427
581
8.60316
620
8.60205
616
8.60093
608
8.59982
614
8.59871
604
8.5976
621
8.59692
574
8.59635
635
8.59579
604
8.59522
609
8.59466
609
8.5941
605
8.59353
614
8.59297
590
8.5924
613
8.59184
596
8.59128
622
8.59071
615
8.59015
571
8.58958
602
8.58902
599
8.58846
623
8.58789
582
8.58733
596
8.58676
614
8.5862
609
8.58564
636
8.58507
633
8.58451
624
8.58394
615
8.58338
610
8.58282
629
8.58225
634
8.58169
614
8.58112
616
8.58056
640
8.58
621
8.57943
559
8.57887
605
8.5783
631
8.57774
676
8.57718
634
8.57661
645
8.57605
666
8.57548
639
8.57492
615
8.57413
636
8.57328
640
8.57243
608
8.57158
577
8.57074
618
8.56989
651
8.56904
643
8.56819
659
8.56734
652
8.56649
656
8.56564
622
8.56479
637
8.56394
654
8.56309
645
8.56224
631
8.56139
614
8.56055
646
8.5597
630
8.55885
623
8.558
642
8.55715
597
8.5563
610
8.55545
628
8.5546
629
8.55375
623
8.5529
640
8.55205
663
8.5512
688
8.55035
640
8.54951
669
8.54866
688
8.54781
679
8.54696
667
8.54611
640
8.54526
651
8.54441
661
8.54356
680
8.54271
679
8.54186
663
8.54101
698
8.54016
663
8.53932
641
8.53847
633
8.53762
649
8.53677
642
8.53592
658
8.53507
646
8.53422
692
8.53337
670
8.53252
658
8.5335
680
8.535
633
8.5365
661
8.538
667
8.5395
672
8.541
649
8.5425
639
8.544
664
8.5455
633
8.547
659
8.5485
683
8.55
678
8.5515
701
8.553
680
8.5545
636
8.556
639
8.5575
671
8.55899
683
8.56049
692
8.56199
722
8.56349
711
8.56499
669
8.56649
680
8.56799
704
8.56949
712
8.57099
797
8.57249
755
8.57399
706
8.57549
698
8.57699
721
8.57849
715
8.57999
703
8.58149
654
8.58298
709
8.58448
706
8.58598
691
8.58748
731
8.58898
691
8.59048
701
8.59198
706
8.59135
693
8.59011
715
8.58887
659
8.58763
724
8.58639
681
8.58515
691
8.58392
739
8.58268
694
8.58144
722
8.5802
711
8.57896
723
8.57773
730
8.57649
755
8.57525
700
8.57401
755
8.57277
690
8.57154
692
8.5703
755
8.56906
737
8.56782
741
8.56658
753
8.56534
792
8.56411
748
8.56287
693
8.56163
715
8.56039
701
8.55915
715
8.55792
752
8.55668
754
8.55544
740
8.5542
722
8.55296
724
8.55173
739
8.55049
735
8.54925
729
8.54801
720
8.54677
745
8.54553
739
8.5443
777
8.54306
758
8.54182
740
8.54058
742
8.53934
765
8.53811
749
8.53687
746
8.53563
755
8.53439
741
8.53315
780
8.53191
776
8.53068
753
8.52944
742
8.5282
780
8.52696
777
8.52572
768
8.52449
763
8.52325
735
8.52201
769
8.52077
808
8.51953
802
8.5183
804
8.51706
744
8.51582
817
8.51458
788
8.51334
816
8.5121
800
8.51087
826
8.50963
846
8.50839
809
8.50715
821
8.50591
823
8.50468
820
8.50344
816
8.5022
803
8.50096
863
8.49972
832
8.49849
764
8.49725
819
8.49601
795
8.49477
794
8.49353
814
8.49229
770
8.49106
697
8.48982
716
8.48858
691
8.48734
623
8.4861
628
8.48487
590
8.48363
560
8.48239
495
8.48115
428
8.4832
402
8.48617
356
8.48914
318
8.49212
338
8.49509
464
8.49806
773
8.50104
1578
8.50401
3113
8.50698
2568
8.50995
1352
8.51293
1427
8.5159
1633
8.51887
2416
8.52185
2043
8.52482
603
8.52779
201
8.53077
147
8.53374
149
8.53671
139
8.53969
138
8.54266
124
8.54563
130
8.5486
135
8.55158
137
8.55455
133
8.55752
137
8.5605
118
8.56347
131
8.56644
136
8.56942
116
8.57239
130
8.57536
118
8.57833
135
8.58131
137
8.58428
139
8.58725
143
8.59023
113
8.5932
115
8.59617
131
8.59915
124
8.60212
131
8.60509
127
8.60806
125
8.61104
127
8.61401
127
8.61698
118
8.61996
119
8.62293
130
8.6259
120
8.62888
114
8.63012
130
8.63087
133
8.63163
115
8.63238
124
8.63314
122
8.63389
127
8.63465
135
8.6354
143
8.63616
111
8.63691
121
8.63767
137
8.63842
128
8.63918
130
8.63993
165
8.64069
154
8.64144
156
8.64219
148
8.64295
131
8.6437
118
8.64446
121
8.64521
127
8.64597
137
8.64672
123
8.64748
130
8.64823
129
8.64899
131
8.64974
127
8.6505
143
8.65125
126
8.65201
111
8.65276
109
8.65352
118
8.65427
138
8.65503
123
8.65578
121
8.65654
128
8.65729
108
8.65804
103
8.6588
101
8.65955
129
8.66031
125
8.66106
123
8.66182
114
8.66257
125
8.66333
125
8.66408
131
8.66484
133
8.66559
137
8.66635
122
8.6671
121
8.66786
130
8.66861
125
8.66937
116
8.67012
129
8.67088
127
8.67163
139
8.67239
136
8.67314
97
8.6739
112
8.67465
140
8.6743
113
8.67363
110
8.67297
129
8.6723
124
8.67163
121
8.67097
115
8.6703
123
8.66964
108
8.66897
113
8.6683
121
8.66764
115
8.66697
131
8.66631
116
8.66564
117
8.66498
124
8.66431
117
8.66364
147
8.66298
151
8.66231
188
8.66165
166
8.66098
152
8.66032
131
8.65965
115
8.65898
106
8.65832
113
8.65765
128
8.65699
97
8.65632
115
8.65565
113
8.65499
117
8.65432
122
8.65366
122
8.65299
127
8.65233
131
8.65166
142
8.65099
145
8.65033
138
8.64966
128
8.649
120
8.64833
137
8.64767
96
8.647
124
8.64633
140
8.64567
126
8.645
127
8.64434
133
8.64367
121
8.643
122
8.64234
132
8.64167
144
8.64101
140
8.64034
117
8.63968
108
8.63901
131
8.63834
119
8.63768
113
8.6398
111
8.64272
116
8.64563
120
8.64854
132
8.65146
127
8.65437
124
8.65728
147
8.6602
142
8.66311
120
8.66602
111
8.66894
121
8.67185
129
8.67476
130
8.67768
122
8.68059
141
8.6835
140
8.68642
141
8.68933
142
8.69224
124
8.69516
113
8.69807
138
8.70098
119
8.7039
137
8.70681
136
8.70972
125
8.71264
123
8.71555
115
8.71846
131
8.72137
147
8.72429
140
8.7272
126
8.73011
140
8.73303
143
8.73594
146
8.73885
139
8.74177
144
8.74468
136
8.74759
137
8.75051
124
8.75342
138
8.75633
135
8.75925
135
8.76216
136
8.76507
133
8.76799
117
8.7709
136
8.77381
140
8.77673
137
8.77964
139
8.78255
135
8.78547
141
8.78838
156
8.79129
134
8.79421
132
8.79712
142
8.80003
140
8.80295
133
8.80586
136
8.80877
118
8.81169
130
8.8146
140
8.81751
141
8.82043
147
8.82334
134
8.82625
117
8.82916
132
8.83208
130
8.83499
136
8.8379
134
8.84082
141
8.84373
123
8.84664
151
8.84956
132
8.85247
134
8.85538
121
8.8583
127
8.86121
114
8.86412
121
8.86704
136
8.86995
131
8.87286
130
8.87578
138
8.87869
130
8.8816
121
8.88452
129
8.88743
115
8.89034
130
8.89326
117
8.89617
107
8.89908
105
8.902
107
8.90491
124
8.90782
122
8.91074
120
8.91365
175
8.91656
258
8.91948
385
8.92239
419
8.9253
337
8.92822
226
8.93113
172
8.93404
139
8.93695
102
8.93987
109
8.94051
97
8.94051
89
8.94051
93
8.94051
76
8.94051
77
8.94051
101
8.94051
96
8.94051
91
8.94051
98
8.94051
100
8.94051
85
8.94051
101
8.94051
118
8.94051
128
8.94051
123
8.94051
111
8.94051
113
8.94051
136
8.94051
90
8.94051
64
8.94051
51
8.94051
35
8.94051
28
8.94051
15
8.94051
10
8.94051
1
8.94051
F 1s/5
Not Specified
2017
7
4
13
37
28
0
9
Casa Info Follows
1
Calib M = 282.722 A = 284.6 BE ADD
0
0
0
   XPS     Spectrum    Lens Mode:Hybrid   Resolution:Pass energy 40    Iris(Aper):slot(Slot)
   Acqn. Time(s): 121        Sweeps: 2        Anode:Mono(Al (Mono))(150 W)   Step(meV): 50.0  
   Dwell Time(ms): 150        Charge Neutraliser :On   Acquired On :17/07/04 13:37:28
XPS
90
6
0
Mono(Al (Mono))
1486.69
150
1e+037
1e+037
6000
6000
1e+037
1e+037
FAT
40
1e+037
-4.45
0
1e+037
1e+037
1e+037
1e+037
F
1s
-1
Kinetic Energy
eV
790.64
0.05
2
Intensity
d
Transmission
d
pulse counting
0.15
2
0
1e+037
1e+037
1e+037
0
806
921
16959
3.41724
3.42712
1353
3.42712
1384
3.4271
1358
3.42707
1337
3.42705
1321
3.42702
1223
3.427
1283
3.42698
1270
3.42695
1284
3.42693
1248
3.4269
1253
3.42688
1220
3.42686
1237
3.42683
1215
3.42681
1243
3.42678
1223
3.42676
1220
3.42674
1249
3.42671
1184
3.42669
1210
3.42667
1218
3.42664
1211
3.42662
1223
3.42659
1182
3.42657
1168
3.42655
1198
3.42652
1212
3.4265
1210
3.42647
1172
3.42645
1158
3.42643
1162
3.4264
1151
3.42638
1190
3.42636
1161
3.42633
1129
3.42631
1191
3.42628
1148
3.42626
1145
3.42624
1166
3.42621
1185
3.42619
1187
3.42616
1136
3.42614
1163
3.42612
1160
3.42609
1187
3.42607
1190
3.42605
1132
3.42602
1157
3.426
1169
3.42597
1158
3.42595
1180
3.42593
1207
3.4259
1117
3.42588
1140
3.42585
1179
3.42583
1122
3.42581
1164
3.42578
1174
3.42576
1111
3.42573
1163
3.42571
1178
3.42569
1115
3.42566
1135
3.42564
1105
3.42562
1087
3.42559
1176
3.42557
1202
3.42554
1110
3.42552
1167
3.4255
1193
3.42547
1199
3.42545
1163
3.42542
1179
3.4254
1167
3.42538
1126
3.42535
1146
3.42533
1153
3.42531
1144
3.42528
1172
3.42526
1182
3.42523
1158
3.42521
1166
3.42519
1174
3.42516
1199
3.42514
1179
3.42511
1173
3.42509
1156
3.42507
1116
3.42504
1155
3.42502
1221
3.425
1235
3.42497
1195
3.42495
1171
3.42492
1185
3.4249
1196
3.42488
1224
3.42485
1206
3.42483
1214
3.4248
1186
3.42478
1223
3.42476
1139
3.42473
1209
3.42471
1189
3.42469
1169
3.42466
1257
3.42464
1264
3.42461
1231
3.42459
1208
3.42457
1219
3.42454
1257
3.42452
1271
3.42449
1264
3.42447
1294
3.42445
1252
3.42442
1283
3.4244
1284
3.42437
1344
3.42435
1309
3.42433
1375
3.4243
1264
3.42428
1277
3.42426
1324
3.42423
1288
3.42421
1300
3.42418
1302
3.42416
1333
3.42414
1390
3.42411
1432
3.42409
1420
3.42406
1466
3.42404
1459
3.42402
1458
3.42399
1491
3.42397
1488
3.42395
1537
3.42392
1626
3.4239
1637
3.42387
1663
3.42385
1733
3.42383
1762
3.4238
1854
3.42378
1905
3.42375
2043
3.42373
2099
3.42371
2091
3.42368
2241
3.42366
2341
3.42364
2472
3.42361
2659
3.42359
2724
3.42356
2831
3.42354
3020
3.42352
3199
3.42349
3508
3.42347
3679
3.42344
3817
3.42342
3996
3.4234
4361
3.42337
4656
3.42335
4894
3.42333
5148
3.4233
5503
3.42328
5862
3.42325
6174
3.42323
6813
3.42321
7149
3.42318
7480
3.42316
7943
3.42313
8431
3.42311
8966
3.42309
9549
3.42306
9947
3.42304
10547
3.42301
11047
3.42299
11542
3.42297
12401
3.42294
12829
3.42292
13339
3.4229
13998
3.42287
14350
3.42285
14769
3.42282
15362
3.4228
15825
3.42278
16198
3.42275
16345
3.42273
16677
3.4227
16747
3.42268
16959
3.42266
16787
3.42263
16886
3.42261
16631
3.42259
16504
3.42256
16351
3.42254
15977
3.42251
15561
3.42249
15194
3.42247
14718
3.42244
14057
3.42242
13246
3.42239
12701
3.42237
12147
3.42235
11455
3.42232
10759
3.4223
10015
3.42228
9357
3.42225
8738
3.42223
8264
3.4222
7525
3.42218
6973
3.42216
6381
3.42213
5882
3.42211
5510
3.42208
5017
3.42206
4618
3.42204
4271
3.42201
4091
3.42199
3764
3.42196
3465
3.42194
3259
3.42192
2958
3.42189
2790
3.42187
2634
3.42185
2458
3.42182
2280
3.4218
2261
3.42177
2103
3.42175
1940
3.42173
1917
3.4217
1865
3.42168
1830
3.42165
1731
3.42163
1668
3.42161
1583
3.42158
1595
3.42156
1481
3.42154
1475
3.42151
1452
3.42149
1450
3.42146
1405
3.42144
1350
3.42142
1370
3.42139
1331
3.42137
1256
3.42134
1337
3.42132
1241
3.4213
1191
3.42127
1248
3.42125
1193
3.42123
1175
3.4212
1146
3.42118
1173
3.42115
1158
3.42113
1173
3.42111
1150
3.42108
1173
3.42106
1120
3.42103
1110
3.42101
1119
3.42099
1122
3.42096
1151
3.42094
1091
3.42091
1102
3.42089
1076
3.42087
1108
3.42084
1053
3.42082
1038
3.4208
1110
3.42077
1087
3.42075
1048
3.42072
1069
3.4207
1119
3.42068
1065
3.42065
1114
3.42063
1054
3.4206
1061
3.42058
1082
3.42056
1043
3.42053
1080
3.42051
1051
3.42049
1088
3.42046
1123
3.42044
998
3.42041
1054
3.42039
1054
3.42037
1045
3.42034
984
3.42032
1009
3.42029
1035
3.42027
1094
3.42025
1055
3.42022
994
3.4202
961
3.42018
1032
3.42015
1026
3.42013
1045
3.4201
1000
3.42008
1014
3.42006
1017
3.42003
1003
3.42001
1047
3.41998
993
3.41996
1068
3.41994
1024
3.41991
993
3.41989
1017
3.41986
1057
3.41984
977
3.41982
1041
3.41979
1028
3.41977
1021
3.41975
1039
3.41972
1006
3.4197
982
3.41967
1038
3.41965
1000
3.41963
977
3.4196
1018
3.41958
1048
3.41955
992
3.41953
987
3.41951
976
3.41948
1056
3.41946
1015
3.41944
1045
3.41941
1003
3.41939
963
3.41936
1006
3.41934
974
3.41932
1044
3.41929
1017
3.41927
1035
3.41924
1026
3.41922
1028
3.4192
1017
3.41917
1012
3.41915
957
3.41913
953
3.4191
994
3.41908
989
3.41905
987
3.41903
975
3.41901
943
3.41898
1008
3.41896
1024
3.41893
955
3.41891
961
3.41889
975
3.41886
982
3.41884
1009
3.41881
1014
3.41879
1019
3.41877
989
3.41874
1042
3.41872
1038
3.4187
1013
3.41867
1028
3.41865
1013
3.41862
1008
3.4186
921
3.41858
995
3.41855
1028
3.41853
978
3.4185
1062
3.41848
1032
3.41846
960
3.41843
1006
3.41841
982
3.41839
1000
3.41836
999
3.41834
1002
3.41831
1038
3.41829
966
3.41827
988
3.41824
976
3.41822
941
3.41819
957
3.41817
976
3.41815
1022
3.41812
1005
3.4181
978
3.41808
1020
3.41805
972
3.41803
982
3.418
1019
3.41798
1007
3.41796
1041
3.41793
1006
3.4179
996
3.41786
974
3.41781
1030
3.41777
971
3.41773
1013
3.41769
1020
3.41765
1007
3.41761
972
3.41757
983
3.41753
981
3.41748
995
3.41744
1002
3.4174
965
3.41736
967
3.41732
1021
3.41728
1007
3.41724
O 1s/6
Not Specified
2017
7
4
13
37
28
0
9
Casa Info Follows
1
Calib M = 282.722 A = 284.6 BE ADD
0
0
0
   XPS     Spectrum    Lens Mode:Hybrid   Resolution:Pass energy 40    Iris(Aper):slot(Slot)
   Acqn. Time(s): 162        Sweeps: 3        Anode:Mono(Al (Mono))(150 W)   Step(meV): 50.0  
   Dwell Time(ms): 150        Charge Neutraliser :On   Acquired On :17/07/04 13:37:28
XPS
90
6
0
Mono(Al (Mono))
1486.69
150
1e+037
1e+037
6000
6000
1e+037
1e+037
FAT
40
1e+037
-4.45
0
1e+037
1e+037
1e+037
1e+037
O
1s
-1
Kinetic Energy
eV
946.69
0.05
2
Intensity
d
Transmission
d
pulse counting
0.15
3
0
1e+037
1e+037
1e+037
0
722
967
5389
3.32569
3.34183
1222
3.34183
1243
3.34178
1201
3.34174
1201
3.34169
1200
3.34165
1237
3.3416
1218
3.34156
1207
3.34151
1219
3.34147
1225
3.34142
1282
3.34138
1164
3.34133
1210
3.34129
1261
3.34124
1217
3.3412
1250
3.34115
1241
3.34111
1230
3.34107
1178
3.34102
1197
3.34098
1174
3.34093
1254
3.34089
1215
3.34084
1228
3.3408
1190
3.34075
1238
3.34071
1215
3.34066
1220
3.34062
1200
3.34057
1179
3.34053
1224
3.34048
1283
3.34044
1264
3.34039
1181
3.34035
1165
3.3403
1148
3.34026
1167
3.34021
1134
3.34017
1162
3.34012
1170
3.34008
1224
3.34003
1195
3.33999
1145
3.33994
1178
3.3399
1187
3.33985
1168
3.33981
1169
3.33976
1220
3.33972
1172
3.33968
1216
3.33963
1208
3.33959
1164
3.33954
1206
3.3395
1137
3.33945
1191
3.33941
1224
3.33936
1190
3.33932
1145
3.33927
1156
3.33923
1179
3.33918
1160
3.33914
1194
3.33909
1136
3.33905
1187
3.339
1240
3.33896
1166
3.33891
1180
3.33887
1176
3.33882
1138
3.33878
1197
3.33873
1173
3.33869
1131
3.33864
1259
3.3386
1206
3.33855
1203
3.33851
1121
3.33846
1186
3.33842
1204
3.33837
1184
3.33833
1180
3.33829
1204
3.33824
1209
3.3382
1156
3.33815
1190
3.33811
1220
3.33806
1164
3.33802
1118
3.33797
1163
3.33793
1154
3.33788
1164
3.33784
1230
3.33779
1150
3.33775
1251
3.3377
1230
3.33766
1170
3.33761
1138
3.33757
1182
3.33752
1197
3.33748
1188
3.33743
1199
3.33739
1222
3.33734
1172
3.3373
1269
3.33725
1211
3.33721
1178
3.33716
1183
3.33712
1195
3.33707
1219
3.33703
1236
3.33698
1202
3.33694
1213
3.3369
1234
3.33685
1273
3.33681
1273
3.33676
1261
3.33672
1272
3.33667
1299
3.33663
1300
3.33658
1266
3.33654
1273
3.33649
1243
3.33645
1279
3.3364
1261
3.33636
1304
3.33631
1328
3.33627
1357
3.33622
1340
3.33618
1391
3.33613
1374
3.33609
1402
3.33604
1391
3.336
1411
3.33595
1414
3.33591
1472
3.33586
1486
3.33582
1457
3.33577
1535
3.33573
1610
3.33568
1675
3.33564
1634
3.3356
1730
3.33555
1735
3.33551
1797
3.33546
1846
3.33542
1917
3.33537
1913
3.33533
2053
3.33528
2076
3.33524
2141
3.33519
2262
3.33515
2277
3.3351
2322
3.33506
2462
3.33501
2605
3.33497
2710
3.33492
2751
3.33488
3000
3.33483
3044
3.33479
3072
3.33474
3205
3.3347
3380
3.33465
3557
3.33461
3599
3.33456
3724
3.33452
3844
3.33447
4097
3.33443
4175
3.33438
4233
3.33434
4433
3.33429
4605
3.33425
4659
3.33421
4704
3.33416
4926
3.33412
4850
3.33407
5046
3.33403
5143
3.33398
5169
3.33394
5204
3.33389
5327
3.33385
5389
3.3338
5326
3.33376
5222
3.33371
5203
3.33367
5267
3.33362
5195
3.33358
5135
3.33353
5021
3.33349
5087
3.33344
5095
3.3334
4903
3.33335
4855
3.33331
4706
3.33326
4642
3.33322
4527
3.33317
4506
3.33313
4511
3.33308
4311
3.33304
4175
3.33299
4054
3.33295
3971
3.3329
3895
3.33286
3657
3.33282
3600
3.33277
3470
3.33273
3410
3.33268
3332
3.33264
3198
3.33259
3052
3.33255
3006
3.3325
2912
3.33246
2865
3.33241
2750
3.33237
2608
3.33232
2462
3.33228
2372
3.33223
2297
3.33219
2084
3.33214
2025
3.3321
1935
3.33205
2001
3.33201
1877
3.33196
1757
3.33192
1655
3.33187
1602
3.33183
1624
3.33178
1504
3.33174
1517
3.33169
1471
3.33165
1469
3.3316
1410
3.33156
1338
3.33151
1299
3.33147
1298
3.33143
1273
3.33138
1270
3.33134
1204
3.33129
1214
3.33125
1196
3.3312
1167
3.33116
1138
3.33111
1148
3.33107
1119
3.33102
1110
3.33098
1089
3.33093
1074
3.33089
1157
3.33084
1148
3.3308
1080
3.33075
1035
3.33071
1052
3.33066
1113
3.33062
1135
3.33057
1108
3.33053
1068
3.33048
1045
3.33044
1070
3.33039
1072
3.33035
1079
3.3303
1055
3.33026
1079
3.33021
1065
3.33017
1093
3.33012
1025
3.33008
1085
3.33004
1082
3.32999
1103
3.32995
1101
3.3299
1060
3.32986
1076
3.32981
1080
3.32977
1037
3.32972
988
3.32968
1048
3.32963
1070
3.32959
1042
3.32954
1027
3.3295
1048
3.32945
1083
3.32941
1032
3.32936
1006
3.32932
1024
3.32927
1053
3.32923
1117
3.32918
1074
3.32914
1025
3.32909
1034
3.32905
1066
3.329
1054
3.32896
1076
3.32891
1031
3.32887
1001
3.32882
1026
3.32878
1031
3.32873
1008
3.32869
1024
3.32865
1051
3.3286
987
3.32856
1008
3.32851
1080
3.32847
1106
3.32842
1054
3.32838
1033
3.32833
1063
3.32829
1050
3.32824
1040
3.3282
1100
3.32815
1066
3.32811
1063
3.32806
1064
3.32802
1083
3.32797
1077
3.32793
1013
3.32788
1103
3.32784
1080
3.32779
1038
3.32775
1020
3.3277
1030
3.32766
1043
3.32761
1034
3.32757
1036
3.32752
1042
3.32748
1042
3.32743
1039
3.32739
1024
3.32735
1035
3.3273
1080
3.32726
1080
3.32721
1054
3.32717
1076
3.32712
1050
3.32708
1087
3.32703
1069
3.32699
1077
3.32694
1036
3.3269
1056
3.32685
1072
3.32681
1064
3.32676
1036
3.32672
1042
3.32667
1042
3.32663
1063
3.32658
1128
3.32654
1052
3.32649
1069
3.32645
1015
3.3264
978
3.32636
1003
3.32631
1046
3.32627
990
3.32622
1027
3.32618
1041
3.32613
1026
3.32609
967
3.32604
1020
3.326
1023
3.32596
998
3.32591
1067
3.32587
1074
3.32582
1046
3.32578
1048
3.32573
1009
3.32569
C 1s/7
Not Specified
2017
7
4
13
37
28
0
9
Casa Info Follows
1
Calib M = 282.722 A = 284.6 BE ADD
0
0
0
   XPS     Spectrum    Lens Mode:Hybrid   Resolution:Pass energy 40    Iris(Aper):slot(Slot)
   Acqn. Time(s): 138        Sweeps: 2        Anode:Mono(Al (Mono))(150 W)   Step(meV): 50.0  
   Dwell Time(ms): 150        Charge Neutraliser :On   Acquired On :17/07/04 13:37:28
XPS
90
6
0
Mono(Al (Mono))
1486.69
150
1e+037
1e+037
6000
6000
1e+037
1e+037
FAT
40
1e+037
-4.45
0
1e+037
1e+037
1e+037
1e+037
C
1s
-1
Kinetic Energy
eV
1190.19
0.05
2
Intensity
d
Transmission
d
pulse counting
0.15
2
0
1e+037
1e+037
1e+037
0
922
122
5277
3.16755
3.19198
495
3.16755
467
3.1676
512
3.16765
475
3.16771
482
3.16776
464
3.16781
479
3.16787
446
3.16792
450
3.16797
479
3.16802
463
3.16808
447
3.16813
448
3.16818
481
3.16824
449
3.16829
456
3.16834
447
3.1684
479
3.16845
414
3.1685
434
3.16856
437
3.16861
433
3.16866
429
3.16871
418
3.16877
453
3.16882
422
3.16887
383
3.16893
447
3.16898
428
3.16903
411
3.16909
401
3.16914
424
3.16919
410
3.16925
394
3.1693
378
3.16935
401
3.16941
404
3.16946
432
3.16951
437
3.16956
411
3.16962
405
3.16967
394
3.16972
393
3.16978
388
3.16983
371
3.16988
384
3.16994
446
3.16999
418
3.17004
370
3.1701
401
3.17015
391
3.1702
406
3.17025
374
3.17031
390
3.17036
388
3.17041
356
3.17047
371
3.17052
369
3.17057
360
3.17063
356
3.17068
357
3.17073
348
3.17079
381
3.17084
369
3.17089
354
3.17095
383
3.171
355
3.17105
355
3.1711
341
3.17116
350
3.17121
356
3.17126
341
3.17132
333
3.17137
350
3.17142
317
3.17148
327
3.17153
359
3.17158
340
3.17164
344
3.17169
356
3.17174
326
3.17179
370
3.17185
314
3.1719
352
3.17195
332
3.17201
340
3.17206
357
3.17211
357
3.17217
359
3.17222
326
3.17227
366
3.17233
399
3.17238
390
3.17243
341
3.17249
367
3.17254
370
3.17259
347
3.17264
370
3.1727
381
3.17275
382
3.1728
366
3.17286
401
3.17291
411
3.17296
430
3.17302
397
3.17307
409
3.17312
386
3.17318
413
3.17323
450
3.17328
399
3.17334
401
3.17339
456
3.17344
456
3.17349
482
3.17355
509
3.1736
501
3.17365
499
3.17371
515
3.17376
510
3.17381
536
3.17387
566
3.17392
638
3.17397
618
3.17403
639
3.17408
663
3.17413
696
3.17418
703
3.17424
741
3.17429
737
3.17434
790
3.1744
826
3.17445
849
3.1745
847
3.17456
894
3.17461
918
3.17466
930
3.17472
924
3.17477
967
3.17482
980
3.17488
978
3.17493
1039
3.17498
1041
3.17503
1045
3.17509
1094
3.17514
1184
3.17519
1215
3.17525
1219
3.1753
1296
3.17535
1364
3.17541
1422
3.17546
1552
3.17551
1683
3.17557
1741
3.17562
1980
3.17567
2059
3.17572
2248
3.17578
2326
3.17583
2494
3.17588
2694
3.17594
2990
3.17599
3096
3.17604
3340
3.1761
3593
3.17615
3817
3.1762
4075
3.17626
4295
3.17631
4420
3.17636
4711
3.17642
4803
3.17647
4942
3.17652
5102
3.17657
5193
3.17663
5194
3.17668
5277
3.17673
5220
3.17679
5016
3.17684
4866
3.17689
4780
3.17695
4581
3.177
4329
3.17705
4112
3.17711
3859
3.17716
3553
3.17721
3328
3.17726
3149
3.17732
2876
3.17737
2612
3.17742
2447
3.17748
2247
3.17753
2167
3.17758
1952
3.17764
1753
3.17769
1750
3.17774
1579
3.1778
1496
3.17785
1483
3.1779
1388
3.17796
1333
3.17801
1281
3.17806
1233
3.17811
1235
3.17817
1202
3.17822
1179
3.17827
1159
3.17833
1162
3.17838
1209
3.17843
1217
3.17849
1193
3.17854
1159
3.17859
1215
3.17865
1201
3.1787
1263
3.17875
1314
3.17881
1386
3.17886
1376
3.17891
1436
3.17896
1482
3.17902
1511
3.17907
1528
3.17912
1589
3.17918
1631
3.17923
1590
3.17928
1661
3.17934
1782
3.17939
1743
3.17944
1789
3.1795
1814
3.17955
1787
3.1796
1705
3.17965
1694
3.17971
1738
3.17976
1689
3.17981
1669
3.17987
1659
3.17992
1635
3.17997
1656
3.18003
1644
3.18008
1625
3.18013
1572
3.18019
1531
3.18024
1544
3.18029
1565
3.18035
1617
3.1804
1575
3.18045
1520
3.1805
1555
3.18056
1586
3.18061
1536
3.18066
1685
3.18072
1682
3.18077
1690
3.18082
1754
3.18088
1821
3.18093
1911
3.18098
1924
3.18104
1968
3.18109
2117
3.18114
2141
3.1812
2299
3.18125
2414
3.1813
2521
3.18135
2549
3.18141
2680
3.18146
2834
3.18151
2850
3.18157
3008
3.18162
3173
3.18167
3190
3.18173
3261
3.18178
3456
3.18183
3478
3.18189
3500
3.18194
3658
3.18199
3673
3.18204
3697
3.1821
3795
3.18215
3806
3.1822
3677
3.18226
3710
3.18231
3570
3.18236
3464
3.18242
3321
3.18247
3267
3.18252
3080
3.18258
2954
3.18263
2699
3.18268
2539
3.18274
2304
3.18279
2130
3.18284
1873
3.18289
1704
3.18295
1570
3.183
1349
3.18305
1281
3.18311
1143
3.18316
1026
3.18321
855
3.18327
741
3.18332
658
3.18337
585
3.18343
559
3.18348
501
3.18353
418
3.18358
371
3.18364
324
3.18369
347
3.18374
296
3.1838
286
3.18385
304
3.1839
266
3.18396
224
3.18401
226
3.18406
215
3.18412
218
3.18417
192
3.18422
177
3.18428
195
3.18433
189
3.18438
179
3.18443
175
3.18449
175
3.18454
172
3.18459
177
3.18465
159
3.1847
163
3.18475
158
3.18481
188
3.18486
165
3.18491
151
3.18497
147
3.18502
149
3.18507
150
3.18512
178
3.18518
147
3.18523
147
3.18528
171
3.18534
160
3.18539
145
3.18544
161
3.1855
155
3.18555
137
3.1856
139
3.18566
160
3.18571
152
3.18576
147
3.18582
152
3.18587
138
3.18592
150
3.18597
155
3.18603
134
3.18608
146
3.18613
164
3.18619
145
3.18624
158
3.18629
148
3.18635
145
3.1864
158
3.18645
158
3.18651
150
3.18656
155
3.18661
154
3.18667
171
3.18672
150
3.18677
129
3.18682
140
3.18688
130
3.18693
130
3.18698
153
3.18704
157
3.18709
142
3.18714
147
3.1872
142
3.18725
138
3.1873
159
3.18736
160
3.18741
134
3.18746
129
3.18751
132
3.18757
154
3.18762
155
3.18767
139
3.18773
127
3.18778
142
3.18783
164
3.18789
139
3.18794
145
3.18799
146
3.18805
151
3.1881
140
3.18815
142
3.18821
132
3.18826
141
3.18831
146
3.18836
140
3.18842
157
3.18847
152
3.18852
129
3.18858
141
3.18863
149
3.18868
134
3.18874
129
3.18879
140
3.18884
143
3.1889
150
3.18895
148
3.189
128
3.18905
131
3.18911
151
3.18916
125
3.18921
154
3.18927
146
3.18932
138
3.18937
145
3.18943
152
3.18948
129
3.18953
137
3.18959
158
3.18964
133
3.18969
140
3.18975
145
3.1898
151
3.18985
175
3.1899
151
3.18996
137
3.19001
140
3.19006
155
3.19012
126
3.19017
135
3.19022
137
3.19028
141
3.19033
162
3.19038
152
3.19044
131
3.19049
154
3.19054
144
3.19059
128
3.19065
135
3.1907
147
3.19075
146
3.19081
143
3.19086
137
3.19091
140
3.19097
137
3.19102
146
3.19107
149
3.19113
134
3.19118
141
3.19123
131
3.19129
154
3.19134
140
3.19139
137
3.19144
124
3.1915
132
3.19155
136
3.1916
131
3.19166
147
3.19171
143
3.19176
122
3.19182
136
3.19187
137
3.19192
140
3.19198
end of experiment
