VAMAS Surface Chemical Analysis Standard Data Transfer Format 1988 May 4
Not Specified
Kratos Axis
Not Specified
/d=/data/20170705/2017006144/B3.dset
3
Casa Info Follows
0
SourceAnalyserAngle: Not Specified
MAP
REGULAR
4
2
32768
32768
1
Etch Time
s
0
0
0
0
4
wide/2
Not Specified
2017
7
4
11
2
29
0
27
Casa Info Follows
1
Calib M = 282.803 A = 284.6 BE ADD
9
annot text peak Data 1201.89 2013 RGB(0,0,0) Font(14,18,0,0,Times New Roman) Vertical
C 1s
annot text peak Data 1253.89 430 RGB(0,0,0) Font(14,18,0,0,Times New Roman) Vertical
S 2s
annot text peak Data 1317.89 568 RGB(0,0,0) Font(14,18,0,0,Times New Roman) Vertical
S 2p
annot text peak Data 507.893 2533 RGB(0,0,0) Font(14,18,0,0,Times New Roman) Vertical
O KLL
annot text peak Data 954.893 3425 RGB(0,0,0) Font(14,18,0,0,Times New Roman) Vertical
O 1s
annot text peak Data 642 1627 RGB(0,0,0) Font(14,18,0,0,Times New Roman) Vertical
F KLL
annot text peak Data 798.893 5329 RGB(0,0,0) Font(14,18,0,0,Times New Roman) Vertical
F 1s
annot text peak Data 1452.89 231 RGB(0,0,0) Font(14,18,0,0,Times New Roman) Vertical
F 2s
annot text peak Data 1085.89 861 RGB(0,0,0) Font(14,18,0,0,Times New Roman) Vertical
N 1s
0
0
   XPS     Spectrum    Lens Mode:Hybrid   Resolution:Pass energy 80    Iris(Aper):slot(Slot)
   Acqn. Time(s): 110        Sweeps: 1        Anode:Mono(Al (Mono))(150 W)   Step(meV): 1000.0
   Dwell Time(ms): 100        Charge Neutraliser :On   Acquired On :17/07/04 11:02:29
XPS
82
6
0
Mono(Al (Mono))
1486.69
150
1e+037
1e+037
6000
6000
1e+037
1e+037
FAT
80
1e+037
-4.45
0
1e+037
1e+037
1e+037
1e+037
Wide
None
-1
Kinetic Energy
eV
386.69
1
2
Intensity
d
Transmission
d
pulse counting
0.1
1
0
1e+037
1e+037
1e+037
0
2202
4
5329
8.48115
10.2364
2165
10.2364
2108
10.2286
2145
10.2207
2192
10.2129
2171
10.2051
2222
10.1972
2201
10.1894
2179
10.1815
2148
10.1737
2122
10.1658
2160
10.158
2223
10.1502
2210
10.1423
2154
10.1345
2164
10.1266
2143
10.1188
2238
10.1109
2235
10.1031
2203
10.0953
2179
10.0874
2110
10.0796
2093
10.0717
2106
10.0639
2136
10.056
2135
10.0492
2152
10.0427
2141
10.0362
2197
10.0296
2145
10.0231
2136
10.0166
2138
10.0101
2215
10.0035
2145
9.997
2218
9.99047
2231
9.98395
2244
9.97742
2247
9.97089
2196
9.96436
2242
9.95784
2304
9.95131
2209
9.94478
2182
9.93825
2245
9.93173
2168
9.9252
2159
9.91867
2217
9.91215
2174
9.90562
2210
9.89909
2255
9.89256
2164
9.88604
2254
9.87951
2208
9.87298
2259
9.86645
2225
9.85993
2171
9.8534
2204
9.84687
2251
9.84034
2168
9.83382
2215
9.82729
2238
9.82076
2259
9.81423
2307
9.80771
2274
9.80118
2225
9.79465
2304
9.78813
2274
9.7816
2241
9.77507
2283
9.76854
2222
9.76202
2267
9.75549
2308
9.74896
2242
9.74243
2282
9.73591
2256
9.72938
2297
9.72439
2267
9.71983
2256
9.71527
2284
9.71071
2265
9.70615
2336
9.7016
2332
9.69704
2180
9.69248
2242
9.68792
2322
9.68336
2362
9.67881
2274
9.67425
2265
9.66969
2333
9.66513
2322
9.66057
2322
9.65602
2264
9.65146
2184
9.6469
2338
9.64234
2347
9.63778
2304
9.63322
2366
9.62867
2350
9.62411
2375
9.61955
2440
9.61499
2358
9.61043
2372
9.60588
2411
9.60132
2433
9.59676
2416
9.5922
2396
9.58764
2364
9.58309
2361
9.57853
2378
9.57397
2406
9.56941
2334
9.56485
2257
9.56029
2212
9.55574
2216
9.55118
2204
9.54662
2220
9.54206
2143
9.5375
2256
9.53294
2278
9.52839
2254
9.52383
2275
9.51927
2307
9.51471
2317
9.51015
2412
9.5056
2533
9.50104
2430
9.4966
2432
9.49219
2476
9.48778
2409
9.48337
2374
9.47896
2361
9.47455
2329
9.47014
2263
9.46573
2139
9.46132
2129
9.45691
2032
9.45251
1944
9.4481
1909
9.44369
1965
9.43928
1931
9.43487
1944
9.43046
1948
9.42605
1935
9.42164
1947
9.41723
1933
9.41282
1896
9.40841
1898
9.40401
1983
9.3996
1915
9.39519
1904
9.39078
1879
9.38637
1878
9.38196
1882
9.37755
1844
9.37314
1853
9.36873
1876
9.36432
1934
9.35992
1928
9.35551
1899
9.3511
1925
9.34669
1899
9.34228
1888
9.33787
1883
9.33346
1821
9.32905
1848
9.32464
1953
9.32023
1902
9.31583
1912
9.31142
1924
9.30701
1913
9.3026
1829
9.29819
1935
9.29378
1962
9.28937
1879
9.28496
1835
9.28055
1894
9.27708
1903
9.27386
1916
9.27065
1876
9.26744
1909
9.26422
1928
9.26101
1914
9.2578
1895
9.25458
1859
9.25137
1949
9.24816
1902
9.24494
1921
9.24173
1890
9.23852
1986
9.2353
1965
9.23209
1863
9.22888
1909
9.22566
1890
9.22245
1887
9.21924
1937
9.21602
1901
9.21281
1878
9.2096
1878
9.20638
1892
9.20317
1900
9.19996
1844
9.19674
1826
9.19353
1914
9.19032
1913
9.1871
1922
9.18389
1936
9.18068
1884
9.17746
1950
9.17425
1857
9.17104
1956
9.16782
1956
9.16461
1926
9.1614
1930
9.15818
1914
9.15497
1856
9.15176
1919
9.14854
1931
9.14533
1897
9.14212
1891
9.1389
1891
9.13569
1948
9.13247
1957
9.12926
1880
9.12605
1919
9.12284
1969
9.11962
1925
9.11731
1921
9.11525
1904
9.11319
1895
9.11112
1925
9.10906
1908
9.107
1896
9.10494
1871
9.10288
1870
9.10082
1908
9.09876
1896
9.0967
1955
9.09464
1940
9.09258
1930
9.09052
1917
9.08845
1970
9.08639
2028
9.08433
2057
9.08227
2071
9.08021
2103
9.07815
1979
9.07609
1998
9.07403
1973
9.07197
1984
9.06991
1956
9.06785
1843
9.06578
1830
9.06372
1872
9.06166
1831
9.0596
1816
9.05754
1778
9.05548
1812
9.05342
1707
9.05136
1627
9.0493
1663
9.04724
1676
9.04518
1676
9.04311
1686
9.04105
1693
9.03899
1737
9.03693
1885
9.03487
2024
9.03281
2144
9.03075
2182
9.02869
2271
9.02663
2415
9.02457
2384
9.0225
2256
9.02044
2053
9.01838
1939
9.01632
1904
9.01335
1788
9.01012
1722
9.0069
1635
9.00367
1543
9.00044
1517
8.99721
1498
8.99398
1418
8.99076
1455
8.98753
1382
8.9843
1454
8.98107
1427
8.97784
1371
8.97462
1354
8.97139
1376
8.96816
1417
8.96493
1366
8.9617
1373
8.95848
1353
8.95525
1376
8.95202
1369
8.94879
1344
8.94556
1347
8.94234
1320
8.93911
1343
8.93588
1339
8.93265
1328
8.92942
1359
8.9262
1393
8.92297
1362
8.91974
1399
8.91651
1370
8.91328
1323
8.91006
1375
8.90683
1297
8.9036
1367
8.90037
1353
8.89714
1337
8.89392
1362
8.89069
1353
8.88746
1372
8.88483
1360
8.88236
1344
8.8799
1391
8.87743
1382
8.87497
1312
8.87251
1341
8.87004
1337
8.86758
1326
8.86511
1378
8.86265
1393
8.86019
1381
8.85772
1372
8.85526
1361
8.85279
1373
8.85033
1379
8.84786
1358
8.8454
1328
8.84294
1398
8.84047
1334
8.83801
1349
8.83554
1360
8.83308
1340
8.83062
1380
8.82815
1340
8.82569
1340
8.82322
1325
8.82076
1288
8.81829
1388
8.81583
1343
8.81337
1384
8.8109
1332
8.80844
1370
8.80597
1382
8.80351
1368
8.80104
1369
8.79858
1382
8.79612
1361
8.79365
1297
8.79119
1331
8.78872
1347
8.78626
1369
8.7838
1370
8.78133
1428
8.77887
1341
8.7764
1323
8.77394
1363
8.77147
1350
8.76901
1302
8.76655
1349
8.76408
1352
8.76162
1322
8.75915
1313
8.75669
1358
8.75422
1299
8.75176
1320
8.7493
1260
8.74683
1313
8.74437
1254
8.7419
1312
8.73944
1313
8.73885
1310
8.73879
1333
8.73873
1304
8.73867
1394
8.73861
1416
8.73855
1387
8.73849
1357
8.73843
1380
8.73837
1375
8.73831
1359
8.73825
1361
8.73819
1401
8.73813
1302
8.73806
1321
8.738
1375
8.73794
1322
8.73788
1346
8.73782
1353
8.73776
1365
8.7377
1310
8.73764
1280
8.73758
1260
8.73752
1191
8.73746
1128
8.7374
1105
8.73734
1068
8.73728
1080
8.73722
1051
8.73716
1033
8.7371
958
8.73704
929
8.73698
901
8.73692
939
8.73686
952
8.7368
918
8.73674
1010
8.73668
1276
8.73662
2235
8.73655
4600
8.73649
5329
8.73643
2794
8.73637
1207
8.73631
902
8.73625
862
8.73619
862
8.73613
788
8.73607
827
8.73601
828
8.73595
853
8.73589
841
8.73468
808
8.73314
816
8.73161
857
8.73007
864
8.72854
871
8.727
835
8.72547
827
8.72393
794
8.7224
813
8.72086
768
8.71933
805
8.71779
811
8.71626
825
8.71472
811
8.71319
848
8.71165
827
8.71012
824
8.70858
854
8.70705
856
8.70551
887
8.70398
862
8.70244
820
8.70091
879
8.69937
877
8.69784
790
8.6963
885
8.69477
853
8.69323
853
8.6917
852
8.69016
863
8.68863
834
8.68709
853
8.68556
850
8.68402
837
8.68249
867
8.68095
894
8.67942
914
8.67788
901
8.67635
902
8.67481
937
8.67328
880
8.67174
876
8.67021
911
8.66867
893
8.66714
888
8.6656
869
8.66407
880
8.66253
864
8.661
878
8.65946
875
8.65793
887
8.65639
908
8.65486
901
8.65332
864
8.65179
851
8.65025
907
8.64872
897
8.64718
900
8.64565
876
8.64411
939
8.64417
901
8.64468
909
8.64518
878
8.64569
899
8.6462
873
8.6467
899
8.64721
883
8.64772
929
8.64822
925
8.64873
901
8.64924
910
8.64974
924
8.65025
918
8.65075
839
8.65126
911
8.65177
892
8.65228
892
8.65278
946
8.65329
898
8.65379
895
8.6543
963
8.65481
945
8.65531
917
8.65582
911
8.65633
949
8.65683
937
8.65734
952
8.65785
962
8.65835
954
8.65886
914
8.65937
894
8.65987
922
8.66038
980
8.66089
988
8.66139
948
8.6619
913
8.66241
934
8.66291
965
8.66342
960
8.66393
989
8.66317
983
8.66206
977
8.66095
1000
8.65984
965
8.65872
986
8.65761
956
8.6565
977
8.65539
986
8.65428
937
8.65317
913
8.65206
958
8.65094
963
8.64983
986
8.64872
980
8.64761
985
8.6465
981
8.64539
994
8.64428
1033
8.64317
1073
8.64205
1082
8.64094
1099
8.63983
1066
8.63872
1068
8.63761
1053
8.6365
1037
8.63539
959
8.63427
964
8.63316
954
8.63205
860
8.63094
885
8.62983
857
8.62872
793
8.62761
800
8.6265
758
8.62538
705
8.62427
668
8.62316
641
8.62205
613
8.62094
590
8.61983
603
8.61872
648
8.6176
761
8.61649
1152
8.61538
2094
8.61427
3154
8.61316
3425
8.61205
2175
8.61094
929
8.60983
588
8.60871
543
8.6076
507
8.60649
519
8.60538
517
8.60427
524
8.60316
536
8.60205
550
8.60093
508
8.59982
538
8.59871
524
8.5976
479
8.59692
533
8.59635
543
8.59579
549
8.59522
547
8.59466
522
8.5941
545
8.59353
506
8.59297
544
8.5924
533
8.59184
519
8.59128
538
8.59071
540
8.59015
565
8.58958
516
8.58902
538
8.58846
533
8.58789
536
8.58733
508
8.58676
518
8.5862
541
8.58564
580
8.58507
536
8.58451
507
8.58394
488
8.58338
530
8.58282
541
8.58225
528
8.58169
540
8.58112
542
8.58056
526
8.58
526
8.57943
529
8.57887
537
8.5783
572
8.57774
541
8.57718
550
8.57661
545
8.57605
551
8.57548
527
8.57492
544
8.57413
514
8.57328
553
8.57243
545
8.57158
520
8.57074
573
8.56989
567
8.56904
568
8.56819
546
8.56734
532
8.56649
557
8.56564
567
8.56479
565
8.56394
557
8.56309
558
8.56224
549
8.56139
560
8.56055
552
8.5597
581
8.55885
581
8.558
562
8.55715
563
8.5563
577
8.55545
564
8.5546
561
8.55375
571
8.5529
551
8.55205
552
8.5512
549
8.55035
582
8.54951
553
8.54866
544
8.54781
553
8.54696
576
8.54611
530
8.54526
568
8.54441
556
8.54356
556
8.54271
551
8.54186
577
8.54101
581
8.54016
571
8.53932
546
8.53847
554
8.53762
565
8.53677
588
8.53592
581
8.53507
551
8.53422
596
8.53337
574
8.53252
598
8.5335
564
8.535
575
8.5365
595
8.538
560
8.5395
600
8.541
583
8.5425
593
8.544
586
8.5455
552
8.547
570
8.5485
590
8.55
565
8.5515
567
8.553
561
8.5545
546
8.556
542
8.5575
504
8.55899
532
8.56049
539
8.56199
559
8.56349
560
8.56499
508
8.56649
528
8.56799
582
8.56949
701
8.57099
854
8.57249
861
8.57399
744
8.57549
582
8.57699
573
8.57849
526
8.57999
536
8.58149
509
8.58298
526
8.58448
582
8.58598
554
8.58748
547
8.58898
526
8.59048
543
8.59198
526
8.59135
544
8.59011
539
8.58887
545
8.58763
547
8.58639
555
8.58515
502
8.58392
538
8.58268
550
8.58144
550
8.5802
533
8.57896
547
8.57773
555
8.57649
511
8.57525
512
8.57401
540
8.57277
535
8.57154
535
8.5703
557
8.56906
543
8.56782
530
8.56658
578
8.56534
568
8.56411
581
8.56287
533
8.56163
566
8.56039
552
8.55915
592
8.55792
555
8.55668
568
8.55544
561
8.5542
575
8.55296
553
8.55173
593
8.55049
580
8.54925
558
8.54801
570
8.54677
558
8.54553
577
8.5443
581
8.54306
594
8.54182
557
8.54058
569
8.53934
566
8.53811
600
8.53687
546
8.53563
572
8.53439
568
8.53315
606
8.53191
586
8.53068
568
8.52944
601
8.5282
609
8.52696
577
8.52572
586
8.52449
572
8.52325
622
8.52201
616
8.52077
603
8.51953
567
8.5183
558
8.51706
580
8.51582
611
8.51458
617
8.51334
629
8.5121
597
8.51087
622
8.50963
640
8.50839
660
8.50715
641
8.50591
635
8.50468
630
8.50344
635
8.5022
623
8.50096
671
8.49972
665
8.49849
628
8.49725
643
8.49601
632
8.49477
627
8.49353
606
8.49229
606
8.49106
578
8.48982
566
8.48858
558
8.48734
523
8.4861
492
8.48487
522
8.48363
472
8.48239
399
8.48115
411
8.4832
374
8.48617
335
8.48914
316
8.49212
342
8.49509
380
8.49806
519
8.50104
835
8.50401
1600
8.50698
1739
8.50995
982
8.51293
1118
8.5159
1613
8.51887
2013
8.52185
1614
8.52482
513
8.52779
205
8.53077
179
8.53374
161
8.53671
175
8.53969
183
8.54266
170
8.54563
167
8.5486
179
8.55158
177
8.55455
177
8.55752
171
8.5605
160
8.56347
187
8.56644
188
8.56942
175
8.57239
174
8.57536
187
8.57833
206
8.58131
189
8.58428
170
8.58725
168
8.59023
182
8.5932
181
8.59617
209
8.59915
181
8.60212
183
8.60509
187
8.60806
191
8.61104
207
8.61401
192
8.61698
183
8.61996
167
8.62293
205
8.6259
175
8.62888
151
8.63012
161
8.63087
172
8.63163
182
8.63238
157
8.63314
165
8.63389
140
8.63465
147
8.6354
166
8.63616
179
8.63691
171
8.63767
167
8.63842
188
8.63918
240
8.63993
372
8.64069
430
8.64144
421
8.64219
261
8.64295
189
8.6437
178
8.64446
186
8.64521
162
8.64597
159
8.64672
147
8.64748
149
8.64823
157
8.64899
148
8.64974
129
8.6505
177
8.65125
160
8.65201
147
8.65276
157
8.65352
143
8.65427
131
8.65503
149
8.65578
154
8.65654
154
8.65729
151
8.65804
152
8.6588
161
8.65955
159
8.66031
143
8.66106
139
8.66182
151
8.66257
158
8.66333
164
8.66408
145
8.66484
164
8.66559
146
8.66635
171
8.6671
172
8.66786
159
8.66861
156
8.66937
141
8.67012
153
8.67088
187
8.67163
173
8.67239
158
8.67314
183
8.6739
176
8.67465
135
8.6743
164
8.67363
166
8.67297
156
8.6723
128
8.67163
123
8.67097
135
8.6703
98
8.66964
105
8.66897
104
8.6683
107
8.66764
114
8.66697
109
8.66631
112
8.66564
108
8.66498
110
8.66431
134
8.66364
230
8.66298
487
8.66231
568
8.66165
434
8.66098
184
8.66032
106
8.65965
110
8.65898
89
8.65832
100
8.65765
102
8.65699
97
8.65632
98
8.65565
105
8.65499
104
8.65432
93
8.65366
104
8.65299
100
8.65233
98
8.65166
85
8.65099
89
8.65033
97
8.64966
100
8.649
102
8.64833
93
8.64767
100
8.647
104
8.64633
96
8.64567
103
8.645
105
8.64434
110
8.64367
96
8.643
95
8.64234
101
8.64167
94
8.64101
94
8.64034
100
8.63968
105
8.63901
107
8.63834
97
8.63768
105
8.6398
106
8.64272
100
8.64563
102
8.64854
91
8.65146
98
8.65437
92
8.65728
100
8.6602
98
8.66311
113
8.66602
99
8.66894
90
8.67185
106
8.67476
100
8.67768
107
8.68059
86
8.6835
103
8.68642
74
8.68933
87
8.69224
113
8.69516
105
8.69807
103
8.70098
110
8.7039
93
8.70681
100
8.70972
102
8.71264
103
8.71555
102
8.71846
104
8.72137
101
8.72429
109
8.7272
100
8.73011
105
8.73303
103
8.73594
103
8.73885
104
8.74177
103
8.74468
121
8.74759
95
8.75051
98
8.75342
103
8.75633
125
8.75925
101
8.76216
103
8.76507
104
8.76799
101
8.7709
110
8.77381
101
8.77673
119
8.77964
92
8.78255
99
8.78547
87
8.78838
94
8.79129
99
8.79421
93
8.79712
114
8.80003
99
8.80295
114
8.80586
104
8.80877
114
8.81169
105
8.8146
105
8.81751
100
8.82043
86
8.82334
122
8.82625
101
8.82916
94
8.83208
107
8.83499
106
8.8379
114
8.84082
115
8.84373
89
8.84664
120
8.84956
107
8.85247
100
8.85538
115
8.8583
133
8.86121
127
8.86412
111
8.86704
117
8.86995
92
8.87286
107
8.87578
111
8.87869
84
8.8816
100
8.88452
95
8.88743
98
8.89034
84
8.89326
93
8.89617
88
8.89908
88
8.902
96
8.90491
89
8.90782
81
8.91074
94
8.91365
97
8.91656
146
8.91948
217
8.92239
231
8.9253
206
8.92822
149
8.93113
111
8.93404
116
8.93695
123
8.93987
103
8.94051
103
8.94051
114
8.94051
106
8.94051
94
8.94051
74
8.94051
74
8.94051
76
8.94051
74
8.94051
66
8.94051
83
8.94051
71
8.94051
73
8.94051
85
8.94051
97
8.94051
85
8.94051
84
8.94051
101
8.94051
115
8.94051
84
8.94051
63
8.94051
36
8.94051
40
8.94051
29
8.94051
20
8.94051
4
8.94051
5
8.94051
F 1s/5
Not Specified
2017
7
4
13
47
28
0
9
Casa Info Follows
1
Calib M = 282.803 A = 284.6 BE ADD
0
0
0
   XPS     Spectrum    Lens Mode:Hybrid   Resolution:Pass energy 40    Iris(Aper):slot(Slot)
   Acqn. Time(s): 121        Sweeps: 2        Anode:Mono(Al (Mono))(150 W)   Step(meV): 50.0  
   Dwell Time(ms): 150        Charge Neutraliser :On   Acquired On :17/07/04 13:47:28
XPS
82
6
0
Mono(Al (Mono))
1486.69
150
1e+037
1e+037
6000
6000
1e+037
1e+037
FAT
40
1e+037
-4.45
0
1e+037
1e+037
1e+037
1e+037
F
1s
-1
Kinetic Energy
eV
790.64
0.05
2
Intensity
d
Transmission
d
pulse counting
0.15
2
0
1e+037
1e+037
1e+037
0
806
850
8692
3.41724
3.42712
1106
3.42712
1055
3.4271
1142
3.42707
1076
3.42705
1081
3.42702
1053
3.427
1077
3.42698
1064
3.42695
1100
3.42693
1080
3.4269
1094
3.42688
1067
3.42686
1088
3.42683
1064
3.42681
1063
3.42678
1049
3.42676
1039
3.42674
1048
3.42671
1034
3.42669
1022
3.42667
1024
3.42664
1017
3.42662
1003
3.42659
990
3.42657
1044
3.42655
1100
3.42652
1017
3.4265
1044
3.42647
1001
3.42645
1048
3.42643
1063
3.4264
1018
3.42638
960
3.42636
1007
3.42633
1017
3.42631
988
3.42628
1050
3.42626
1036
3.42624
1060
3.42621
983
3.42619
1025
3.42616
1050
3.42614
1022
3.42612
1063
3.42609
1021
3.42607
1030
3.42605
1012
3.42602
980
3.426
980
3.42597
1008
3.42595
988
3.42593
983
3.4259
1017
3.42588
1070
3.42585
1009
3.42583
1046
3.42581
1010
3.42578
996
3.42576
999
3.42573
1012
3.42571
1007
3.42569
967
3.42566
1021
3.42564
1034
3.42562
995
3.42559
1049
3.42557
983
3.42554
1030
3.42552
1063
3.4255
1060
3.42547
1023
3.42545
994
3.42542
985
3.4254
982
3.42538
1075
3.42535
1002
3.42533
1002
3.42531
1011
3.42528
993
3.42526
1021
3.42523
1009
3.42521
1027
3.42519
970
3.42516
987
3.42514
1039
3.42511
1017
3.42509
1020
3.42507
1052
3.42504
1007
3.42502
973
3.425
1008
3.42497
1007
3.42495
952
3.42492
1002
3.4249
1023
3.42488
1040
3.42485
1021
3.42483
1014
3.4248
1048
3.42478
1011
3.42476
1028
3.42473
1041
3.42471
997
3.42469
997
3.42466
1020
3.42464
1017
3.42461
1036
3.42459
991
3.42457
1013
3.42454
1040
3.42452
988
3.42449
1047
3.42447
1055
3.42445
994
3.42442
1079
3.4244
1048
3.42437
1064
3.42435
1084
3.42433
1042
3.4243
1089
3.42428
1033
3.42426
1081
3.42423
1049
3.42421
1077
3.42418
1042
3.42416
1070
3.42414
1102
3.42411
1136
3.42409
1095
3.42406
1108
3.42404
1104
3.42402
1140
3.42399
1114
3.42397
1122
3.42395
1114
3.42392
1163
3.4239
1219
3.42387
1209
3.42385
1204
3.42383
1189
3.4238
1268
3.42378
1287
3.42375
1263
3.42373
1320
3.42371
1325
3.42368
1354
3.42366
1419
3.42364
1446
3.42361
1503
3.42359
1589
3.42356
1601
3.42354
1585
3.42352
1706
3.42349
1841
3.42347
1828
3.42344
1946
3.42342
2094
3.4234
2174
3.42337
2255
3.42335
2327
3.42333
2439
3.4233
2638
3.42328
2797
3.42325
2988
3.42323
3137
3.42321
3309
3.42318
3500
3.42316
3765
3.42313
3885
3.42311
4066
3.42309
4286
3.42306
4593
3.42304
4878
3.42301
5146
3.42299
5508
3.42297
5820
3.42294
5986
3.42292
6285
3.4229
6607
3.42287
6923
3.42285
7064
3.42282
7268
3.4228
7440
3.42278
7769
3.42275
7928
3.42273
8205
3.4227
8128
3.42268
8461
3.42266
8544
3.42263
8675
3.42261
8692
3.42259
8638
3.42256
8659
3.42254
8593
3.42251
8478
3.42249
8257
3.42247
8181
3.42244
7872
3.42242
7728
3.42239
7398
3.42237
7059
3.42235
6873
3.42232
6507
3.4223
6241
3.42228
5896
3.42225
5435
3.42223
5165
3.4222
4856
3.42218
4649
3.42216
4242
3.42213
3975
3.42211
3616
3.42208
3396
3.42206
3132
3.42204
2948
3.42201
2726
3.42199
2607
3.42196
2438
3.42194
2221
3.42192
2123
3.42189
2003
3.42187
1912
3.42185
1807
3.42182
1668
3.4218
1598
3.42177
1574
3.42175
1518
3.42173
1437
3.4217
1425
3.42168
1353
3.42165
1297
3.42163
1290
3.42161
1267
3.42158
1215
3.42156
1180
3.42154
1182
3.42151
1200
3.42149
1127
3.42146
1108
3.42144
1090
3.42142
1130
3.42139
1136
3.42137
1063
3.42134
1057
3.42132
1048
3.4213
1043
3.42127
1052
3.42125
1075
3.42123
998
3.4212
1017
3.42118
1010
3.42115
1038
3.42113
1020
3.42111
1025
3.42108
978
3.42106
1027
3.42103
921
3.42101
939
3.42099
990
3.42096
1024
3.42094
1041
3.42091
1012
3.42089
958
3.42087
999
3.42084
957
3.42082
994
3.4208
1000
3.42077
931
3.42075
920
3.42072
989
3.4207
942
3.42068
946
3.42065
971
3.42063
944
3.4206
957
3.42058
941
3.42056
945
3.42053
939
3.42051
919
3.42049
963
3.42046
965
3.42044
932
3.42041
875
3.42039
913
3.42037
917
3.42034
923
3.42032
964
3.42029
927
3.42027
953
3.42025
929
3.42022
938
3.4202
955
3.42018
994
3.42015
960
3.42013
938
3.4201
989
3.42008
994
3.42006
928
3.42003
960
3.42001
934
3.41998
984
3.41996
955
3.41994
906
3.41991
888
3.41989
882
3.41986
955
3.41984
911
3.41982
953
3.41979
962
3.41977
967
3.41975
956
3.41972
941
3.4197
976
3.41967
953
3.41965
996
3.41963
938
3.4196
988
3.41958
929
3.41955
975
3.41953
945
3.41951
919
3.41948
935
3.41946
945
3.41944
955
3.41941
923
3.41939
940
3.41936
917
3.41934
950
3.41932
922
3.41929
933
3.41927
915
3.41924
923
3.41922
897
3.4192
967
3.41917
950
3.41915
945
3.41913
858
3.4191
922
3.41908
928
3.41905
942
3.41903
945
3.41901
913
3.41898
897
3.41896
996
3.41893
910
3.41891
933
3.41889
955
3.41886
973
3.41884
915
3.41881
955
3.41879
934
3.41877
963
3.41874
972
3.41872
936
3.4187
934
3.41867
970
3.41865
949
3.41862
954
3.4186
957
3.41858
916
3.41855
939
3.41853
967
3.4185
940
3.41848
951
3.41846
938
3.41843
921
3.41841
922
3.41839
966
3.41836
953
3.41834
916
3.41831
914
3.41829
941
3.41827
969
3.41824
932
3.41822
934
3.41819
937
3.41817
912
3.41815
939
3.41812
929
3.4181
978
3.41808
939
3.41805
935
3.41803
932
3.418
927
3.41798
959
3.41796
947
3.41793
942
3.4179
924
3.41786
943
3.41781
925
3.41777
940
3.41773
964
3.41769
962
3.41765
924
3.41761
917
3.41757
880
3.41753
850
3.41748
910
3.41744
958
3.4174
972
3.41736
954
3.41732
941
3.41728
895
3.41724
O 1s/6
Not Specified
2017
7
4
13
47
28
0
9
Casa Info Follows
1
Calib M = 282.803 A = 284.6 BE ADD
0
0
0
   XPS     Spectrum    Lens Mode:Hybrid   Resolution:Pass energy 40    Iris(Aper):slot(Slot)
   Acqn. Time(s): 162        Sweeps: 3        Anode:Mono(Al (Mono))(150 W)   Step(meV): 50.0  
   Dwell Time(ms): 150        Charge Neutraliser :On   Acquired On :17/07/04 13:47:28
XPS
82
6
0
Mono(Al (Mono))
1486.69
150
1e+037
1e+037
6000
6000
1e+037
1e+037
FAT
40
1e+037
-4.45
0
1e+037
1e+037
1e+037
1e+037
O
1s
-1
Kinetic Energy
eV
946.69
0.05
2
Intensity
d
Transmission
d
pulse counting
0.15
3
0
1e+037
1e+037
1e+037
0
722
807
6992
3.32569
3.34183
1120
3.34183
1126
3.34178
1107
3.34174
1131
3.34169
1117
3.34165
1113
3.3416
1126
3.34156
1125
3.34151
1153
3.34147
1120
3.34142
1092
3.34138
1048
3.34133
1098
3.34129
1108
3.34124
1124
3.3412
1085
3.34115
1091
3.34111
1039
3.34107
1101
3.34102
1074
3.34098
1058
3.34093
1070
3.34089
1041
3.34084
1130
3.3408
1035
3.34075
1082
3.34071
1061
3.34066
1013
3.34062
1029
3.34057
1067
3.34053
1042
3.34048
1029
3.34044
1031
3.34039
1035
3.34035
1096
3.3403
993
3.34026
1017
3.34021
1086
3.34017
1036
3.34012
1032
3.34008
1024
3.34003
1002
3.33999
1006
3.33994
1020
3.3399
1029
3.33985
1062
3.33981
998
3.33976
1040
3.33972
1003
3.33968
1011
3.33963
992
3.33959
1013
3.33954
1024
3.3395
1031
3.33945
1022
3.33941
1016
3.33936
996
3.33932
970
3.33927
1061
3.33923
1055
3.33918
1020
3.33914
976
3.33909
974
3.33905
1004
3.339
1051
3.33896
994
3.33891
1000
3.33887
969
3.33882
990
3.33878
977
3.33873
992
3.33869
1012
3.33864
1051
3.3386
1015
3.33855
1014
3.33851
1017
3.33846
976
3.33842
1066
3.33837
1012
3.33833
994
3.33829
999
3.33824
1033
3.3382
1012
3.33815
1005
3.33811
960
3.33806
1030
3.33802
1037
3.33797
1003
3.33793
982
3.33788
1013
3.33784
1023
3.33779
989
3.33775
1015
3.3377
1011
3.33766
1047
3.33761
1080
3.33757
1023
3.33752
1040
3.33748
1048
3.33743
1094
3.33739
1042
3.33734
1022
3.3373
1024
3.33725
1102
3.33721
1083
3.33716
1011
3.33712
1086
3.33707
1040
3.33703
1040
3.33698
1071
3.33694
1087
3.3369
1096
3.33685
1132
3.33681
1152
3.33676
1161
3.33672
1149
3.33667
1207
3.33663
1158
3.33658
1133
3.33654
1184
3.33649
1145
3.33645
1152
3.3364
1194
3.33636
1201
3.33631
1261
3.33627
1227
3.33622
1285
3.33618
1324
3.33613
1391
3.33609
1342
3.33604
1398
3.336
1441
3.33595
1468
3.33591
1537
3.33586
1596
3.33582
1550
3.33577
1635
3.33573
1701
3.33568
1676
3.33564
1787
3.3356
1900
3.33555
1903
3.33551
2019
3.33546
2067
3.33542
2143
3.33537
2262
3.33533
2311
3.33528
2385
3.33524
2466
3.33519
2593
3.33515
2678
3.3351
2753
3.33506
2903
3.33501
3037
3.33497
3210
3.33492
3329
3.33488
3456
3.33483
3473
3.33479
3683
3.33474
3844
3.3347
3995
3.33465
4084
3.33461
4187
3.33456
4260
3.33452
4366
3.33447
4548
3.33443
4716
3.33438
4867
3.33434
4953
3.33429
5052
3.33425
5182
3.33421
5177
3.33416
5346
3.33412
5465
3.33407
5631
3.33403
5682
3.33398
5842
3.33394
5839
3.33389
5970
3.33385
6150
3.3338
6197
3.33376
6170
3.33371
6221
3.33367
6360
3.33362
6385
3.33358
6439
3.33353
6583
3.33349
6732
3.33344
6678
3.3334
6642
3.33335
6837
3.33331
6878
3.33326
6868
3.33322
6908
3.33317
6992
3.33313
6979
3.33308
6931
3.33304
6851
3.33299
6827
3.33295
6799
3.3329
6783
3.33286
6708
3.33282
6516
3.33277
6400
3.33273
6256
3.33268
6000
3.33264
5809
3.33259
5588
3.33255
5401
3.3325
5260
3.33246
5032
3.33241
4854
3.33237
4489
3.33232
4162
3.33228
3908
3.33223
3583
3.33219
3372
3.33214
3178
3.3321
2975
3.33205
2705
3.33201
2519
3.33196
2291
3.33192
2118
3.33187
1967
3.33183
1857
3.33178
1741
3.33174
1661
3.33169
1522
3.33165
1423
3.3316
1314
3.33156
1275
3.33151
1221
3.33147
1207
3.33143
1200
3.33138
1163
3.33134
1101
3.33129
1088
3.33125
1016
3.3312
1011
3.33116
1048
3.33111
1020
3.33107
1049
3.33102
997
3.33098
1002
3.33093
1001
3.33089
991
3.33084
968
3.3308
932
3.33075
945
3.33071
920
3.33066
903
3.33062
939
3.33057
927
3.33053
938
3.33048
951
3.33044
942
3.33039
885
3.33035
877
3.3303
920
3.33026
940
3.33021
924
3.33017
937
3.33012
925
3.33008
925
3.33004
894
3.32999
944
3.32995
875
3.3299
918
3.32986
863
3.32981
918
3.32977
893
3.32972
907
3.32968
917
3.32963
912
3.32959
946
3.32954
896
3.3295
935
3.32945
897
3.32941
923
3.32936
887
3.32932
833
3.32927
898
3.32923
949
3.32918
867
3.32914
883
3.32909
883
3.32905
878
3.329
894
3.32896
882
3.32891
892
3.32887
902
3.32882
915
3.32878
868
3.32873
866
3.32869
902
3.32865
884
3.3286
910
3.32856
930
3.32851
883
3.32847
875
3.32842
906
3.32838
878
3.32833
878
3.32829
913
3.32824
879
3.3282
902
3.32815
905
3.32811
887
3.32806
948
3.32802
925
3.32797
913
3.32793
863
3.32788
868
3.32784
871
3.32779
964
3.32775
886
3.3277
898
3.32766
895
3.32761
897
3.32757
840
3.32752
872
3.32748
881
3.32743
866
3.32739
905
3.32735
904
3.3273
860
3.32726
910
3.32721
917
3.32717
891
3.32712
851
3.32708
890
3.32703
878
3.32699
853
3.32694
881
3.3269
920
3.32685
934
3.32681
873
3.32676
845
3.32672
838
3.32667
875
3.32663
850
3.32658
843
3.32654
891
3.32649
828
3.32645
886
3.3264
853
3.32636
919
3.32631
845
3.32627
880
3.32622
872
3.32618
875
3.32613
888
3.32609
929
3.32604
887
3.326
807
3.32596
911
3.32591
894
3.32587
918
3.32582
880
3.32578
894
3.32573
900
3.32569
C 1s/7
Not Specified
2017
7
4
13
47
28
0
9
Casa Info Follows
1
Calib M = 282.803 A = 284.6 BE ADD
0
0
0
   XPS     Spectrum    Lens Mode:Hybrid   Resolution:Pass energy 40    Iris(Aper):slot(Slot)
   Acqn. Time(s): 138        Sweeps: 2        Anode:Mono(Al (Mono))(150 W)   Step(meV): 50.0  
   Dwell Time(ms): 150        Charge Neutraliser :On   Acquired On :17/07/04 13:47:28
XPS
82
6
0
Mono(Al (Mono))
1486.69
150
1e+037
1e+037
6000
6000
1e+037
1e+037
FAT
40
1e+037
-4.45
0
1e+037
1e+037
1e+037
1e+037
C
1s
-1
Kinetic Energy
eV
1190.19
0.05
2
Intensity
d
Transmission
d
pulse counting
0.15
2
0
1e+037
1e+037
1e+037
0
922
160
2992
3.16755
3.19198
454
3.16755
418
3.1676
400
3.16765
430
3.16771
439
3.16776
373
3.16781
416
3.16787
425
3.16792
417
3.16797
425
3.16802
386
3.16808
389
3.16813
395
3.16818
374
3.16824
411
3.16829
393
3.16834
397
3.1684
390
3.16845
383
3.1685
404
3.16856
387
3.16861
397
3.16866
406
3.16871
365
3.16877
359
3.16882
353
3.16887
366
3.16893
385
3.16898
387
3.16903
344
3.16909
360
3.16914
364
3.16919
384
3.16925
403
3.1693
375
3.16935
352
3.16941
371
3.16946
372
3.16951
376
3.16956
381
3.16962
389
3.16967
388
3.16972
393
3.16978
352
3.16983
369
3.16988
393
3.16994
352
3.16999
357
3.17004
346
3.1701
371
3.17015
375
3.1702
334
3.17025
335
3.17031
343
3.17036
356
3.17041
377
3.17047
346
3.17052
343
3.17057
350
3.17063
347
3.17068
349
3.17073
353
3.17079
346
3.17084
362
3.17089
372
3.17095
342
3.171
324
3.17105
348
3.1711
340
3.17116
375
3.17121
359
3.17126
372
3.17132
306
3.17137
345
3.17142
339
3.17148
335
3.17153
352
3.17158
330
3.17164
330
3.17169
331
3.17174
343
3.17179
327
3.17185
333
3.1719
324
3.17195
324
3.17201
326
3.17206
292
3.17211
324
3.17217
298
3.17222
330
3.17227
327
3.17233
351
3.17238
319
3.17243
342
3.17249
302
3.17254
344
3.17259
334
3.17264
346
3.1727
339
3.17275
338
3.1728
312
3.17286
322
3.17291
357
3.17296
332
3.17302
338
3.17307
329
3.17312
319
3.17318
335
3.17323
343
3.17328
363
3.17334
359
3.17339
352
3.17344
389
3.17349
401
3.17355
389
3.1736
379
3.17365
380
3.17371
368
3.17376
394
3.17381
400
3.17387
411
3.17392
402
3.17397
422
3.17403
384
3.17408
435
3.17413
409
3.17418
516
3.17424
495
3.17429
517
3.17434
513
3.1744
508
3.17445
512
3.1745
564
3.17456
554
3.17461
585
3.17466
571
3.17472
643
3.17477
656
3.17482
638
3.17488
628
3.17493
680
3.17498
665
3.17503
689
3.17509
687
3.17514
712
3.17519
778
3.17525
768
3.1753
755
3.17535
819
3.17541
825
3.17546
894
3.17551
912
3.17557
948
3.17562
1019
3.17567
1055
3.17572
1146
3.17578
1180
3.17583
1257
3.17588
1402
3.17594
1493
3.17599
1519
3.17604
1530
3.1761
1647
3.17615
1807
3.1762
1876
3.17626
1975
3.17631
2121
3.17636
2260
3.17642
2331
3.17647
2424
3.17652
2569
3.17657
2662
3.17663
2772
3.17668
2820
3.17673
2910
3.17679
2895
3.17684
2887
3.17689
2958
3.17695
2945
3.177
2829
3.17705
2757
3.17711
2671
3.17716
2532
3.17721
2461
3.17726
2342
3.17732
2207
3.17737
2069
3.17742
1910
3.17748
1753
3.17753
1667
3.17758
1536
3.17764
1411
3.17769
1293
3.17774
1243
3.1778
1155
3.17785
1144
3.1779
1067
3.17796
944
3.17801
965
3.17806
910
3.17811
894
3.17817
844
3.17822
804
3.17827
801
3.17833
792
3.17838
817
3.17843
770
3.17849
735
3.17854
789
3.17859
758
3.17865
766
3.1787
794
3.17875
817
3.17881
790
3.17886
788
3.17891
769
3.17896
823
3.17902
849
3.17907
893
3.17912
921
3.17918
950
3.17923
1003
3.17928
985
3.17934
1005
3.17939
1077
3.17944
1056
3.1795
1150
3.17955
1163
3.1796
1280
3.17965
1282
3.17971
1325
3.17976
1321
3.17981
1364
3.17987
1429
3.17992
1432
3.17997
1513
3.18003
1564
3.18008
1493
3.18013
1638
3.18019
1686
3.18024
1782
3.18029
1690
3.18035
1799
3.1804
1853
3.18045
1912
3.1805
1915
3.18056
1918
3.18061
1936
3.18066
1941
3.18072
1982
3.18077
1972
3.18082
1959
3.18088
2020
3.18093
2094
3.18098
2116
3.18104
2118
3.18109
2201
3.18114
2168
3.1812
2225
3.18125
2265
3.1813
2343
3.18135
2373
3.18141
2457
3.18146
2518
3.18151
2529
3.18157
2599
3.18162
2698
3.18167
2785
3.18173
2707
3.18178
2800
3.18183
2845
3.18189
2828
3.18194
2937
3.18199
2923
3.18204
2992
3.1821
2918
3.18215
2926
3.1822
2833
3.18226
2722
3.18231
2698
3.18236
2588
3.18242
2601
3.18247
2413
3.18252
2259
3.18258
2192
3.18263
1995
3.18268
1862
3.18274
1710
3.18279
1594
3.18284
1470
3.18289
1314
3.18295
1196
3.183
1085
3.18305
960
3.18311
872
3.18316
772
3.18321
686
3.18327
595
3.18332
530
3.18337
496
3.18343
442
3.18348
423
3.18353
385
3.18358
331
3.18364
333
3.18369
277
3.18374
275
3.1838
273
3.18385
264
3.1839
245
3.18396
235
3.18401
221
3.18406
241
3.18412
224
3.18417
211
3.18422
210
3.18428
233
3.18433
213
3.18438
192
3.18443
196
3.18449
215
3.18454
216
3.18459
213
3.18465
206
3.1847
199
3.18475
202
3.18481
224
3.18486
211
3.18491
208
3.18497
203
3.18502
213
3.18507
208
3.18512
192
3.18518
189
3.18523
191
3.18528
180
3.18534
216
3.18539
189
3.18544
187
3.1855
194
3.18555
193
3.1856
202
3.18566
200
3.18571
204
3.18576
201
3.18582
186
3.18587
180
3.18592
193
3.18597
205
3.18603
193
3.18608
193
3.18613
214
3.18619
206
3.18624
184
3.18629
191
3.18635
217
3.1864
185
3.18645
201
3.18651
197
3.18656
165
3.18661
185
3.18667
203
3.18672
182
3.18677
181
3.18682
190
3.18688
193
3.18693
204
3.18698
210
3.18704
209
3.18709
169
3.18714
176
3.1872
174
3.18725
186
3.1873
197
3.18736
184
3.18741
175
3.18746
199
3.18751
199
3.18757
202
3.18762
196
3.18767
200
3.18773
211
3.18778
191
3.18783
187
3.18789
169
3.18794
189
3.18799
199
3.18805
196
3.1881
197
3.18815
176
3.18821
180
3.18826
199
3.18831
185
3.18836
180
3.18842
201
3.18847
183
3.18852
190
3.18858
202
3.18863
217
3.18868
190
3.18874
191
3.18879
209
3.18884
187
3.1889
192
3.18895
186
3.189
193
3.18905
166
3.18911
178
3.18916
218
3.18921
196
3.18927
220
3.18932
209
3.18937
184
3.18943
194
3.18948
182
3.18953
170
3.18959
183
3.18964
187
3.18969
199
3.18975
189
3.1898
196
3.18985
208
3.1899
164
3.18996
172
3.19001
185
3.19006
166
3.19012
189
3.19017
179
3.19022
179
3.19028
160
3.19033
190
3.19038
191
3.19044
171
3.19049
201
3.19054
189
3.19059
198
3.19065
202
3.1907
187
3.19075
202
3.19081
198
3.19086
185
3.19091
213
3.19097
188
3.19102
192
3.19107
195
3.19113
201
3.19118
204
3.19123
198
3.19129
199
3.19134
181
3.19139
204
3.19144
186
3.1915
163
3.19155
184
3.1916
191
3.19166
192
3.19171
184
3.19176
188
3.19182
188
3.19187
189
3.19192
192
3.19198
end of experiment
