VAMAS Surface Chemical Analysis Standard Data Transfer Format 1988 May 4
Not Specified
Kratos Axis
Not Specified
/d=/data/20170705/2017006144/B5.dset
3
Casa Info Follows
0
SourceAnalyserAngle: Not Specified
MAP
REGULAR
4
2
32768
32768
1
Etch Time
s
0
0
0
0
4
wide/2
Not Specified
2017
7
4
11
7
33
0
21
Casa Info Follows
1
Calib M = 282.505 A = 284.6 BE ADD
6
annot text peak Data 1202.6 1994 RGB(0,0,0) Font(14,18,0,0,Times New Roman) Vertical
C 1s
annot text peak Data 642 3436 RGB(0,0,0) Font(14,18,0,0,Times New Roman) Vertical
F KLL
annot text peak Data 798.595 18103 RGB(0,0,0) Font(14,18,0,0,Times New Roman) Vertical
F 1s
annot text peak Data 1452.6 626 RGB(0,0,0) Font(14,18,0,0,Times New Roman) Vertical
F 2s
annot text peak Data 505 3725 RGB(0,0,0) Font(14,18,0,0,Times New Roman) Vertical
O KLL
annot text peak Data 953.595 1777 RGB(0,0,0) Font(14,18,0,0,Times New Roman) Vertical
O 1s
0
0
   XPS     Spectrum    Lens Mode:Hybrid   Resolution:Pass energy 80    Iris(Aper):slot(Slot)
   Acqn. Time(s): 110        Sweeps: 1        Anode:Mono(Al (Mono))(150 W)   Step(meV): 1000.0
   Dwell Time(ms): 100        Charge Neutraliser :On   Acquired On :17/07/04 11:07:33
XPS
63
7
0
Mono(Al (Mono))
1486.69
150
1e+037
1e+037
6000
6000
1e+037
1e+037
FAT
80
1e+037
-4.45
0
1e+037
1e+037
1e+037
1e+037
Wide
None
-1
Kinetic Energy
eV
386.69
1
2
Intensity
d
Transmission
d
pulse counting
0.1
1
0
1e+037
1e+037
1e+037
0
2202
1
18103
8.48115
10.2364
3179
10.2364
3272
10.2286
3340
10.2207
3259
10.2129
3232
10.2051
3307
10.1972
3225
10.1894
3258
10.1815
3364
10.1737
3318
10.1658
3310
10.158
3329
10.1502
3343
10.1423
3358
10.1345
3290
10.1266
3405
10.1188
3299
10.1109
3299
10.1031
3203
10.0953
3239
10.0874
3225
10.0796
3236
10.0717
3308
10.0639
3360
10.056
3256
10.0492
3253
10.0427
3370
10.0362
3351
10.0296
3376
10.0231
3414
10.0166
3361
10.0101
3376
10.0035
3365
9.997
3392
9.99047
3357
9.98395
3369
9.97742
3290
9.97089
3381
9.96436
3427
9.95784
3382
9.95131
3312
9.94478
3331
9.93825
3348
9.93173
3357
9.9252
3386
9.91867
3383
9.91215
3375
9.90562
3375
9.89909
3338
9.89256
3359
9.88604
3394
9.87951
3305
9.87298
3313
9.86645
3376
9.85993
3467
9.8534
3562
9.84687
3535
9.84034
3431
9.83382
3523
9.82729
3464
9.82076
3523
9.81423
3549
9.80771
3457
9.80118
3432
9.79465
3384
9.78813
3390
9.7816
3428
9.77507
3439
9.76854
3506
9.76202
3599
9.75549
3512
9.74896
3411
9.74243
3472
9.73591
3471
9.72938
3515
9.72439
3453
9.71983
3449
9.71527
3493
9.71071
3415
9.70615
3525
9.7016
3453
9.69704
3459
9.69248
3450
9.68792
3527
9.68336
3481
9.67881
3569
9.67425
3506
9.66969
3466
9.66513
3484
9.66057
3533
9.65602
3611
9.65146
3624
9.6469
3580
9.64234
3575
9.63778
3560
9.63322
3547
9.62867
3595
9.62411
3551
9.61955
3584
9.61499
3676
9.61043
3609
9.60588
3571
9.60132
3500
9.59676
3560
9.5922
3619
9.58764
3599
9.58309
3660
9.57853
3602
9.57397
3536
9.56941
3654
9.56485
3599
9.56029
3449
9.55574
3465
9.55118
3571
9.54662
3567
9.54206
3633
9.5375
3562
9.53294
3695
9.52839
3651
9.52383
3647
9.51927
3725
9.51471
3669
9.51015
3689
9.5056
3700
9.50104
3719
9.4966
3723
9.49219
3783
9.48778
3721
9.48337
3711
9.47896
3699
9.47455
3755
9.47014
3619
9.46573
3650
9.46132
3502
9.45691
3537
9.45251
3553
9.4481
3590
9.44369
3499
9.43928
3455
9.43487
3492
9.43046
3549
9.42605
3470
9.42164
3484
9.41723
3592
9.41282
3527
9.40841
3490
9.40401
3661
9.3996
3569
9.39519
3568
9.39078
3640
9.38637
3614
9.38196
3558
9.37755
3555
9.37314
3623
9.36873
3582
9.36432
3608
9.35992
3702
9.35551
3573
9.3511
3509
9.34669
3523
9.34228
3558
9.33787
3528
9.33346
3616
9.32905
3617
9.32464
3642
9.32023
3597
9.31583
3571
9.31142
3657
9.30701
3635
9.3026
3601
9.29819
3555
9.29378
3569
9.28937
3671
9.28496
3665
9.28055
3654
9.27708
3663
9.27386
3650
9.27065
3651
9.26744
3729
9.26422
3686
9.26101
3667
9.2578
3729
9.25458
3698
9.25137
3659
9.24816
3649
9.24494
3678
9.24173
3689
9.23852
3686
9.2353
3708
9.23209
3789
9.22888
3707
9.22566
3701
9.22245
3792
9.21924
3685
9.21602
3594
9.21281
3626
9.2096
3704
9.20638
3663
9.20317
3716
9.19996
3701
9.19674
3799
9.19353
3810
9.19032
3686
9.1871
3776
9.18389
3715
9.18068
3790
9.17746
3868
9.17425
3858
9.17104
3815
9.16782
3764
9.16461
3815
9.1614
3799
9.15818
3837
9.15497
3866
9.15176
3885
9.14854
3796
9.14533
3872
9.14212
3999
9.1389
4007
9.13569
3936
9.13247
3986
9.12926
4075
9.12605
4160
9.12284
4133
9.11962
3998
9.11731
3940
9.11525
3947
9.11319
3953
9.11112
3835
9.10906
3871
9.107
3782
9.10494
3837
9.10288
3880
9.10082
3895
9.09876
3806
9.0967
3942
9.09464
3973
9.09258
4103
9.09052
4219
9.08845
4274
9.08639
4437
9.08433
4521
9.08227
4618
9.08021
4572
9.07815
4508
9.07609
4423
9.07403
4165
9.07197
4186
9.06991
4106
9.06785
4093
9.06578
4025
9.06372
3829
9.06166
3823
9.0596
3708
9.05754
3565
9.05548
3567
9.05342
3500
9.05136
3436
9.0493
3376
9.04724
3385
9.04518
3460
9.04311
3636
9.04105
3577
9.03899
3663
9.03693
3969
9.03487
4427
9.03281
4914
9.03075
5548
9.02869
5916
9.02663
6122
9.02457
5994
9.0225
5435
9.02044
4983
9.01838
4555
9.01632
4117
9.01335
3834
9.01012
3533
9.0069
3299
9.00367
3076
9.00044
2919
8.99721
2763
8.99398
2641
8.99076
2554
8.98753
2409
8.9843
2453
8.98107
2466
8.97784
2346
8.97462
2402
8.97139
2328
8.96816
2254
8.96493
2284
8.9617
2332
8.95848
2345
8.95525
2308
8.95202
2345
8.94879
2295
8.94556
2303
8.94234
2294
8.93911
2316
8.93588
2325
8.93265
2322
8.92942
2275
8.9262
2352
8.92297
2285
8.91974
2271
8.91651
2298
8.91328
2429
8.91006
2320
8.90683
2349
8.9036
2352
8.90037
2367
8.89714
2372
8.89392
2333
8.89069
2341
8.88746
2346
8.88483
2384
8.88236
2278
8.8799
2287
8.87743
2343
8.87497
2312
8.87251
2344
8.87004
2318
8.86758
2366
8.86511
2387
8.86265
2337
8.86019
2347
8.85772
2375
8.85526
2326
8.85279
2254
8.85033
2304
8.84786
2356
8.8454
2338
8.84294
2340
8.84047
2393
8.83801
2409
8.83554
2397
8.83308
2383
8.83062
2364
8.82815
2371
8.82569
2325
8.82322
2424
8.82076
2454
8.81829
2466
8.81583
2377
8.81337
2391
8.8109
2474
8.80844
2466
8.80597
2511
8.80351
2376
8.80104
2404
8.79858
2393
8.79612
2392
8.79365
2442
8.79119
2473
8.78872
2501
8.78626
2409
8.7838
2354
8.78133
2399
8.77887
2380
8.7764
2394
8.77394
2442
8.77147
2425
8.76901
2466
8.76655
2395
8.76408
2412
8.76162
2388
8.75915
2381
8.75669
2291
8.75422
2385
8.75176
2411
8.7493
2339
8.74683
2350
8.74437
2407
8.7419
2447
8.73944
2326
8.73885
2310
8.73879
2345
8.73873
2335
8.73867
2476
8.73861
2512
8.73855
2507
8.73849
2550
8.73843
2561
8.73837
2565
8.73831
2616
8.73825
2568
8.73819
2498
8.73813
2554
8.73806
2500
8.738
2579
8.73794
2560
8.73788
2589
8.73782
2446
8.73776
2448
8.7377
2398
8.73764
2293
8.73758
2198
8.73752
2061
8.73746
1937
8.7374
1846
8.73734
1811
8.73728
1700
8.73722
1576
8.73716
1465
8.7371
1337
8.73704
1177
8.73698
1093
8.73692
1053
8.73686
1030
8.7368
1108
8.73674
1338
8.73668
1995
8.73662
5247
8.73655
14425
8.73649
18103
8.73643
7999
8.73637
2067
8.73631
1052
8.73625
849
8.73619
792
8.73613
783
8.73607
801
8.73601
789
8.73595
750
8.73589
757
8.73468
788
8.73314
735
8.73161
750
8.73007
745
8.72854
756
8.727
743
8.72547
726
8.72393
732
8.7224
714
8.72086
776
8.71933
815
8.71779
770
8.71626
766
8.71472
731
8.71319
726
8.71165
770
8.71012
741
8.70858
770
8.70705
790
8.70551
807
8.70398
762
8.70244
689
8.70091
731
8.69937
773
8.69784
764
8.6963
771
8.69477
798
8.69323
766
8.6917
786
8.69016
791
8.68863
737
8.68709
764
8.68556
710
8.68402
754
8.68249
790
8.68095
766
8.67942
784
8.67788
804
8.67635
798
8.67481
758
8.67328
770
8.67174
776
8.67021
760
8.66867
821
8.66714
770
8.6656
726
8.66407
769
8.66253
781
8.661
785
8.65946
755
8.65793
792
8.65639
774
8.65486
774
8.65332
752
8.65179
764
8.65025
720
8.64872
759
8.64718
785
8.64565
810
8.64411
786
8.64417
785
8.64468
774
8.64518
808
8.64569
799
8.6462
775
8.6467
790
8.64721
840
8.64772
801
8.64822
729
8.64873
816
8.64924
808
8.64974
769
8.65025
757
8.65075
748
8.65126
769
8.65177
791
8.65228
782
8.65278
774
8.65329
745
8.65379
797
8.6543
792
8.65481
808
8.65531
799
8.65582
789
8.65633
791
8.65683
793
8.65734
788
8.65785
782
8.65835
790
8.65886
801
8.65937
784
8.65987
802
8.66038
805
8.66089
798
8.66139
838
8.6619
836
8.66241
783
8.66291
788
8.66342
848
8.66393
818
8.66317
832
8.66206
807
8.66095
795
8.65984
811
8.65872
817
8.65761
817
8.6565
797
8.65539
815
8.65428
819
8.65317
840
8.65206
830
8.65094
789
8.64983
812
8.64872
836
8.64761
792
8.6465
818
8.64539
813
8.64428
818
8.64317
841
8.64205
833
8.64094
878
8.63983
852
8.63872
893
8.63761
844
8.6365
852
8.63539
796
8.63427
799
8.63316
812
8.63205
796
8.63094
795
8.62983
787
8.62872
767
8.62761
772
8.6265
790
8.62538
753
8.62427
703
8.62316
682
8.62205
699
8.62094
711
8.61983
725
8.61872
724
8.6176
783
8.61649
943
8.61538
1382
8.61427
1777
8.61316
1646
8.61205
1138
8.61094
809
8.60983
693
8.60871
697
8.6076
675
8.60649
693
8.60538
655
8.60427
672
8.60316
655
8.60205
698
8.60093
692
8.59982
660
8.59871
689
8.5976
683
8.59692
676
8.59635
708
8.59579
683
8.59522
678
8.59466
666
8.5941
681
8.59353
667
8.59297
686
8.5924
705
8.59184
654
8.59128
681
8.59071
693
8.59015
651
8.58958
709
8.58902
688
8.58846
694
8.58789
690
8.58733
681
8.58676
694
8.5862
678
8.58564
691
8.58507
690
8.58451
658
8.58394
692
8.58338
675
8.58282
674
8.58225
693
8.58169
701
8.58112
714
8.58056
686
8.58
688
8.57943
681
8.57887
713
8.5783
708
8.57774
711
8.57718
699
8.57661
659
8.57605
690
8.57548
685
8.57492
675
8.57413
692
8.57328
698
8.57243
692
8.57158
720
8.57074
682
8.56989
696
8.56904
750
8.56819
717
8.56734
672
8.56649
696
8.56564
731
8.56479
682
8.56394
685
8.56309
704
8.56224
730
8.56139
718
8.56055
709
8.5597
690
8.55885
710
8.558
716
8.55715
730
8.5563
714
8.55545
682
8.5546
663
8.55375
722
8.5529
743
8.55205
708
8.5512
717
8.55035
714
8.54951
704
8.54866
690
8.54781
694
8.54696
745
8.54611
732
8.54526
697
8.54441
684
8.54356
689
8.54271
745
8.54186
711
8.54101
707
8.54016
730
8.53932
711
8.53847
730
8.53762
738
8.53677
747
8.53592
766
8.53507
744
8.53422
752
8.53337
714
8.53252
733
8.5335
705
8.535
735
8.5365
779
8.538
724
8.5395
746
8.541
698
8.5425
738
8.544
728
8.5455
735
8.547
760
8.5485
704
8.55
739
8.5515
734
8.553
743
8.5545
747
8.556
745
8.5575
771
8.55899
765
8.56049
756
8.56199
773
8.56349
766
8.56499
748
8.56649
763
8.56799
770
8.56949
797
8.57099
800
8.57249
776
8.57399
785
8.57549
796
8.57699
797
8.57849
722
8.57999
711
8.58149
745
8.58298
752
8.58448
752
8.58598
738
8.58748
760
8.58898
763
8.59048
798
8.59198
751
8.59135
765
8.59011
763
8.58887
793
8.58763
787
8.58639
805
8.58515
784
8.58392
788
8.58268
793
8.58144
782
8.5802
764
8.57896
797
8.57773
795
8.57649
791
8.57525
806
8.57401
850
8.57277
811
8.57154
773
8.5703
777
8.56906
814
8.56782
751
8.56658
767
8.56534
815
8.56411
786
8.56287
792
8.56163
800
8.56039
806
8.55915
791
8.55792
788
8.55668
805
8.55544
813
8.5542
827
8.55296
784
8.55173
808
8.55049
829
8.54925
851
8.54801
820
8.54677
840
8.54553
889
8.5443
853
8.54306
818
8.54182
894
8.54058
873
8.53934
854
8.53811
786
8.53687
812
8.53563
834
8.53439
845
8.53315
846
8.53191
819
8.53068
852
8.52944
807
8.5282
823
8.52696
860
8.52572
849
8.52449
833
8.52325
801
8.52201
830
8.52077
904
8.51953
866
8.5183
901
8.51706
854
8.51582
896
8.51458
900
8.51334
947
8.5121
868
8.51087
917
8.50963
962
8.50839
974
8.50715
925
8.50591
877
8.50468
892
8.50344
933
8.5022
873
8.50096
899
8.49972
884
8.49849
870
8.49725
862
8.49601
868
8.49477
843
8.49353
834
8.49229
776
8.49106
783
8.48982
754
8.48858
744
8.48734
718
8.4861
647
8.48487
614
8.48363
558
8.48239
485
8.48115
480
8.4832
415
8.48617
371
8.48914
352
8.49212
338
8.49509
452
8.49806
827
8.50104
1756
8.50401
4347
8.50698
4322
8.50995
1596
8.51293
1025
8.5159
1177
8.51887
1896
8.52185
1994
8.52482
739
8.52779
243
8.53077
165
8.53374
138
8.53671
130
8.53969
131
8.54266
132
8.54563
147
8.5486
132
8.55158
142
8.55455
148
8.55752
145
8.5605
150
8.56347
155
8.56644
158
8.56942
125
8.57239
126
8.57536
133
8.57833
132
8.58131
147
8.58428
138
8.58725
132
8.59023
145
8.5932
137
8.59617
145
8.59915
140
8.60212
118
8.60509
146
8.60806
134
8.61104
149
8.61401
133
8.61698
151
8.61996
143
8.62293
144
8.6259
145
8.62888
145
8.63012
151
8.63087
140
8.63163
134
8.63238
150
8.63314
128
8.63389
148
8.63465
146
8.6354
159
8.63616
148
8.63691
126
8.63767
140
8.63842
149
8.63918
145
8.63993
151
8.64069
141
8.64144
156
8.64219
157
8.64295
145
8.6437
145
8.64446
131
8.64521
146
8.64597
150
8.64672
140
8.64748
120
8.64823
149
8.64899
136
8.64974
143
8.6505
154
8.65125
133
8.65201
110
8.65276
151
8.65352
140
8.65427
140
8.65503
162
8.65578
141
8.65654
154
8.65729
146
8.65804
153
8.6588
155
8.65955
141
8.66031
151
8.66106
165
8.66182
142
8.66257
144
8.66333
146
8.66408
146
8.66484
162
8.66559
149
8.66635
156
8.6671
138
8.66786
147
8.66861
148
8.66937
156
8.67012
145
8.67088
140
8.67163
143
8.67239
154
8.67314
162
8.6739
125
8.67465
129
8.6743
158
8.67363
168
8.67297
138
8.6723
149
8.67163
144
8.67097
148
8.6703
147
8.66964
146
8.66897
151
8.6683
148
8.66764
159
8.66697
143
8.66631
149
8.66564
134
8.66498
155
8.66431
144
8.66364
150
8.66298
170
8.66231
172
8.66165
170
8.66098
159
8.66032
149
8.65965
162
8.65898
148
8.65832
132
8.65765
141
8.65699
149
8.65632
156
8.65565
142
8.65499
123
8.65432
148
8.65366
140
8.65299
152
8.65233
156
8.65166
184
8.65099
156
8.65033
161
8.64966
159
8.649
143
8.64833
140
8.64767
145
8.647
137
8.64633
142
8.64567
142
8.645
160
8.64434
151
8.64367
144
8.643
145
8.64234
138
8.64167
162
8.64101
170
8.64034
157
8.63968
151
8.63901
162
8.63834
147
8.63768
151
8.6398
162
8.64272
168
8.64563
151
8.64854
153
8.65146
159
8.65437
164
8.65728
166
8.6602
175
8.66311
155
8.66602
142
8.66894
146
8.67185
146
8.67476
150
8.67768
149
8.68059
171
8.6835
164
8.68642
159
8.68933
160
8.69224
152
8.69516
155
8.69807
146
8.70098
144
8.7039
170
8.70681
146
8.70972
145
8.71264
154
8.71555
157
8.71846
150
8.72137
168
8.72429
178
8.7272
184
8.73011
186
8.73303
157
8.73594
144
8.73885
185
8.74177
163
8.74468
168
8.74759
162
8.75051
159
8.75342
149
8.75633
178
8.75925
173
8.76216
169
8.76507
146
8.76799
157
8.7709
168
8.77381
147
8.77673
148
8.77964
146
8.78255
153
8.78547
159
8.78838
176
8.79129
155
8.79421
144
8.79712
158
8.80003
171
8.80295
160
8.80586
172
8.80877
158
8.81169
170
8.8146
163
8.81751
171
8.82043
172
8.82334
173
8.82625
181
8.82916
165
8.83208
180
8.83499
174
8.8379
182
8.84082
172
8.84373
189
8.84664
186
8.84956
159
8.85247
165
8.85538
184
8.8583
168
8.86121
163
8.86412
147
8.86704
178
8.86995
161
8.87286
168
8.87578
151
8.87869
167
8.8816
144
8.88452
130
8.88743
156
8.89034
147
8.89326
119
8.89617
126
8.89908
131
8.902
122
8.90491
134
8.90782
142
8.91074
161
8.91365
213
8.91656
332
8.91948
506
8.92239
626
8.9253
541
8.92822
323
8.93113
215
8.93404
160
8.93695
131
8.93987
120
8.94051
93
8.94051
103
8.94051
82
8.94051
78
8.94051
88
8.94051
116
8.94051
129
8.94051
130
8.94051
132
8.94051
120
8.94051
114
8.94051
143
8.94051
144
8.94051
173
8.94051
148
8.94051
136
8.94051
161
8.94051
181
8.94051
132
8.94051
82
8.94051
56
8.94051
44
8.94051
30
8.94051
20
8.94051
8
8.94051
1
8.94051
F 1s/5
Not Specified
2017
7
4
14
7
32
0
9
Casa Info Follows
1
Calib M = 282.505 A = 284.6 BE ADD
0
0
0
   XPS     Spectrum    Lens Mode:Hybrid   Resolution:Pass energy 40    Iris(Aper):slot(Slot)
   Acqn. Time(s): 121        Sweeps: 2        Anode:Mono(Al (Mono))(150 W)   Step(meV): 50.0  
   Dwell Time(ms): 150        Charge Neutraliser :On   Acquired On :17/07/04 14:07:32
XPS
63
7
0
Mono(Al (Mono))
1486.69
150
1e+037
1e+037
6000
6000
1e+037
1e+037
FAT
40
1e+037
-4.45
0
1e+037
1e+037
1e+037
1e+037
F
1s
-1
Kinetic Energy
eV
790.64
0.05
2
Intensity
d
Transmission
d
pulse counting
0.15
2
0
1e+037
1e+037
1e+037
0
806
833
29838
3.41724
3.42712
1442
3.42712
1470
3.4271
1445
3.42707
1419
3.42705
1435
3.42702
1433
3.427
1413
3.42698
1331
3.42695
1403
3.42693
1416
3.4269
1352
3.42688
1341
3.42686
1376
3.42683
1384
3.42681
1372
3.42678
1344
3.42676
1394
3.42674
1310
3.42671
1333
3.42669
1324
3.42667
1317
3.42664
1264
3.42662
1210
3.42659
1273
3.42657
1283
3.42655
1284
3.42652
1203
3.4265
1229
3.42647
1164
3.42645
1171
3.42643
1192
3.4264
1201
3.42638
1215
3.42636
1161
3.42633
1203
3.42631
1182
3.42628
1190
3.42626
1178
3.42624
1200
3.42621
1168
3.42619
1147
3.42616
1127
3.42614
1181
3.42612
1172
3.42609
1185
3.42607
1186
3.42605
1186
3.42602
1218
3.426
1156
3.42597
1175
3.42595
1145
3.42593
1090
3.4259
1168
3.42588
1183
3.42585
1147
3.42583
1169
3.42581
1110
3.42578
1119
3.42576
1146
3.42573
1181
3.42571
1161
3.42569
1182
3.42566
1117
3.42564
1125
3.42562
1160
3.42559
1138
3.42557
1164
3.42554
1157
3.42552
1187
3.4255
1199
3.42547
1203
3.42545
1186
3.42542
1158
3.4254
1150
3.42538
1156
3.42535
1166
3.42533
1198
3.42531
1182
3.42528
1130
3.42526
1160
3.42523
1131
3.42521
1163
3.42519
1156
3.42516
1111
3.42514
1134
3.42511
1130
3.42509
1160
3.42507
1162
3.42504
1184
3.42502
1174
3.425
1158
3.42497
1199
3.42495
1217
3.42492
1209
3.4249
1175
3.42488
1219
3.42485
1235
3.42483
1215
3.4248
1194
3.42478
1269
3.42476
1244
3.42473
1225
3.42471
1167
3.42469
1185
3.42466
1218
3.42464
1248
3.42461
1268
3.42459
1269
3.42457
1270
3.42454
1248
3.42452
1281
3.42449
1309
3.42447
1241
3.42445
1224
3.42442
1268
3.4244
1331
3.42437
1322
3.42435
1323
3.42433
1337
3.4243
1364
3.42428
1357
3.42426
1392
3.42423
1401
3.42421
1341
3.42418
1369
3.42416
1381
3.42414
1408
3.42411
1425
3.42409
1432
3.42406
1395
3.42404
1525
3.42402
1500
3.42399
1547
3.42397
1520
3.42395
1547
3.42392
1537
3.4239
1589
3.42387
1575
3.42385
1655
3.42383
1680
3.4238
1746
3.42378
1797
3.42375
1881
3.42373
1904
3.42371
2049
3.42368
2085
3.42366
2188
3.42364
2204
3.42361
2380
3.42359
2485
3.42356
2688
3.42354
2744
3.42352
2976
3.42349
3087
3.42347
3369
3.42344
3584
3.42342
3997
3.4234
4223
3.42337
4480
3.42335
4846
3.42333
5332
3.4233
5863
3.42328
6167
3.42325
6751
3.42323
7374
3.42321
7983
3.42318
8656
3.42316
9563
3.42313
10255
3.42311
10948
3.42309
12004
3.42306
13110
3.42304
14077
3.42301
14976
3.42299
16271
3.42297
17220
3.42294
18304
3.42292
19325
3.4229
20713
3.42287
21846
3.42285
23007
3.42282
24039
3.4228
25046
3.42278
25912
3.42275
26802
3.42273
27686
3.4227
28443
3.42268
28869
3.42266
29104
3.42263
29579
3.42261
29838
3.42259
29776
3.42256
29766
3.42254
29018
3.42251
28465
3.42249
27958
3.42247
27099
3.42244
26273
3.42242
25034
3.42239
24308
3.42237
23103
3.42235
21744
3.42232
20405
3.4223
19049
3.42228
17730
3.42225
16497
3.42223
15344
3.4222
14238
3.42218
13095
3.42216
11920
3.42213
10966
3.42211
10014
3.42208
8994
3.42206
8408
3.42204
7619
3.42201
6931
3.42199
6362
3.42196
5911
3.42194
5409
3.42192
4800
3.42189
4349
3.42187
4183
3.42185
3822
3.42182
3525
3.4218
3252
3.42177
3026
3.42175
2800
3.42173
2637
3.4217
2454
3.42168
2255
3.42165
2208
3.42163
2083
3.42161
2000
3.42158
1954
3.42156
1876
3.42154
1751
3.42151
1653
3.42149
1588
3.42146
1573
3.42144
1516
3.42142
1517
3.42139
1496
3.42137
1372
3.42134
1320
3.42132
1387
3.4213
1315
3.42127
1272
3.42125
1284
3.42123
1226
3.4212
1222
3.42118
1258
3.42115
1216
3.42113
1129
3.42111
1150
3.42108
1178
3.42106
1096
3.42103
1097
3.42101
1096
3.42099
1097
3.42096
1101
3.42094
1094
3.42091
1061
3.42089
1046
3.42087
1046
3.42084
1108
3.42082
1071
3.4208
1037
3.42077
1067
3.42075
1029
3.42072
1048
3.4207
1032
3.42068
991
3.42065
984
3.42063
1027
3.4206
1024
3.42058
1033
3.42056
992
3.42053
990
3.42051
974
3.42049
1011
3.42046
956
3.42044
1018
3.42041
988
3.42039
973
3.42037
949
3.42034
935
3.42032
979
3.42029
924
3.42027
972
3.42025
975
3.42022
942
3.4202
963
3.42018
922
3.42015
928
3.42013
933
3.4201
930
3.42008
919
3.42006
910
3.42003
931
3.42001
888
3.41998
879
3.41996
904
3.41994
953
3.41991
943
3.41989
940
3.41986
913
3.41984
928
3.41982
915
3.41979
899
3.41977
908
3.41975
944
3.41972
930
3.4197
921
3.41967
882
3.41965
926
3.41963
886
3.4196
876
3.41958
924
3.41955
898
3.41953
913
3.41951
898
3.41948
901
3.41946
923
3.41944
876
3.41941
889
3.41939
899
3.41936
915
3.41934
927
3.41932
895
3.41929
885
3.41927
901
3.41924
886
3.41922
866
3.4192
852
3.41917
851
3.41915
901
3.41913
883
3.4191
908
3.41908
876
3.41905
896
3.41903
899
3.41901
915
3.41898
905
3.41896
833
3.41893
838
3.41891
835
3.41889
882
3.41886
854
3.41884
937
3.41881
898
3.41879
886
3.41877
893
3.41874
921
3.41872
914
3.4187
874
3.41867
875
3.41865
886
3.41862
857
3.4186
904
3.41858
867
3.41855
875
3.41853
877
3.4185
895
3.41848
887
3.41846
861
3.41843
891
3.41841
864
3.41839
862
3.41836
906
3.41834
886
3.41831
892
3.41829
879
3.41827
885
3.41824
911
3.41822
861
3.41819
865
3.41817
867
3.41815
836
3.41812
878
3.4181
917
3.41808
892
3.41805
863
3.41803
896
3.418
894
3.41798
844
3.41796
909
3.41793
900
3.4179
859
3.41786
896
3.41781
878
3.41777
876
3.41773
865
3.41769
865
3.41765
941
3.41761
916
3.41757
861
3.41753
873
3.41748
896
3.41744
875
3.4174
869
3.41736
879
3.41732
937
3.41728
861
3.41724
O 1s/6
Not Specified
2017
7
4
14
7
32
0
9
Casa Info Follows
1
Calib M = 282.505 A = 284.6 BE ADD
0
0
0
   XPS     Spectrum    Lens Mode:Hybrid   Resolution:Pass energy 40    Iris(Aper):slot(Slot)
   Acqn. Time(s): 162        Sweeps: 3        Anode:Mono(Al (Mono))(150 W)   Step(meV): 50.0  
   Dwell Time(ms): 150        Charge Neutraliser :On   Acquired On :17/07/04 14:07:32
XPS
63
7
0
Mono(Al (Mono))
1486.69
150
1e+037
1e+037
6000
6000
1e+037
1e+037
FAT
40
1e+037
-4.45
0
1e+037
1e+037
1e+037
1e+037
O
1s
-1
Kinetic Energy
eV
946.69
0.05
2
Intensity
d
Transmission
d
pulse counting
0.15
3
0
1e+037
1e+037
1e+037
0
722
1080
3457
3.32569
3.34183
1263
3.34183
1255
3.34178
1243
3.34174
1213
3.34169
1212
3.34165
1253
3.3416
1233
3.34156
1231
3.34151
1189
3.34147
1227
3.34142
1249
3.34138
1285
3.34133
1235
3.34129
1231
3.34124
1195
3.3412
1205
3.34115
1250
3.34111
1217
3.34107
1227
3.34102
1212
3.34098
1260
3.34093
1236
3.34089
1222
3.34084
1220
3.3408
1202
3.34075
1209
3.34071
1239
3.34066
1280
3.34062
1252
3.34057
1216
3.34053
1227
3.34048
1199
3.34044
1215
3.34039
1198
3.34035
1233
3.3403
1201
3.34026
1256
3.34021
1215
3.34017
1214
3.34012
1230
3.34008
1225
3.34003
1233
3.33999
1240
3.33994
1240
3.3399
1201
3.33985
1178
3.33981
1163
3.33976
1240
3.33972
1236
3.33968
1229
3.33963
1210
3.33959
1229
3.33954
1183
3.3395
1222
3.33945
1181
3.33941
1199
3.33936
1229
3.33932
1180
3.33927
1197
3.33923
1206
3.33918
1218
3.33914
1237
3.33909
1263
3.33905
1228
3.339
1180
3.33896
1197
3.33891
1186
3.33887
1246
3.33882
1236
3.33878
1220
3.33873
1225
3.33869
1230
3.33864
1242
3.3386
1204
3.33855
1215
3.33851
1195
3.33846
1215
3.33842
1246
3.33837
1211
3.33833
1199
3.33829
1169
3.33824
1182
3.3382
1188
3.33815
1228
3.33811
1217
3.33806
1212
3.33802
1240
3.33797
1265
3.33793
1236
3.33788
1250
3.33784
1244
3.33779
1257
3.33775
1256
3.3377
1276
3.33766
1297
3.33761
1219
3.33757
1178
3.33752
1214
3.33748
1251
3.33743
1236
3.33739
1189
3.33734
1243
3.3373
1285
3.33725
1230
3.33721
1187
3.33716
1240
3.33712
1226
3.33707
1235
3.33703
1208
3.33698
1284
3.33694
1280
3.3369
1290
3.33685
1277
3.33681
1279
3.33676
1316
3.33672
1340
3.33667
1314
3.33663
1323
3.33658
1318
3.33654
1378
3.33649
1298
3.33645
1376
3.3364
1338
3.33636
1349
3.33631
1379
3.33627
1428
3.33622
1381
3.33618
1380
3.33613
1384
3.33609
1452
3.33604
1403
3.336
1456
3.33595
1502
3.33591
1450
3.33586
1477
3.33582
1522
3.33577
1565
3.33573
1589
3.33568
1581
3.33564
1596
3.3356
1578
3.33555
1685
3.33551
1720
3.33546
1834
3.33542
1712
3.33537
1835
3.33533
1938
3.33528
1930
3.33524
1993
3.33519
2047
3.33515
2099
3.3351
2158
3.33506
2247
3.33501
2227
3.33497
2316
3.33492
2328
3.33488
2466
3.33483
2495
3.33479
2609
3.33474
2670
3.3347
2712
3.33465
2742
3.33461
2857
3.33456
2892
3.33452
2930
3.33447
3012
3.33443
3039
3.33438
3080
3.33434
3116
3.33429
3187
3.33425
3226
3.33421
3375
3.33416
3426
3.33412
3399
3.33407
3428
3.33403
3391
3.33398
3366
3.33394
3426
3.33389
3430
3.33385
3395
3.3338
3308
3.33376
3457
3.33371
3328
3.33367
3402
3.33362
3436
3.33358
3293
3.33353
3329
3.33349
3307
3.33344
3230
3.3334
3126
3.33335
3052
3.33331
3123
3.33326
3105
3.33322
3026
3.33317
2985
3.33313
2914
3.33308
2842
3.33304
2765
3.33299
2768
3.33295
2729
3.3329
2656
3.33286
2596
3.33282
2605
3.33277
2497
3.33273
2546
3.33268
2437
3.33264
2293
3.33259
2258
3.33255
2283
3.3325
2200
3.33246
2078
3.33241
2100
3.33237
2048
3.33232
1926
3.33228
1950
3.33223
1839
3.33219
1744
3.33214
1773
3.3321
1703
3.33205
1662
3.33201
1621
3.33196
1579
3.33192
1511
3.33187
1501
3.33183
1499
3.33178
1442
3.33174
1374
3.33169
1399
3.33165
1371
3.3316
1349
3.33156
1324
3.33151
1337
3.33147
1273
3.33143
1303
3.33138
1193
3.33134
1192
3.33129
1244
3.33125
1253
3.3312
1209
3.33116
1168
3.33111
1195
3.33107
1174
3.33102
1157
3.33098
1202
3.33093
1235
3.33089
1208
3.33084
1206
3.3308
1167
3.33075
1199
3.33071
1177
3.33066
1152
3.33062
1147
3.33057
1152
3.33053
1162
3.33048
1163
3.33044
1225
3.33039
1221
3.33035
1146
3.3303
1211
3.33026
1160
3.33021
1138
3.33017
1183
3.33012
1192
3.33008
1146
3.33004
1135
3.32999
1164
3.32995
1151
3.3299
1159
3.32986
1119
3.32981
1158
3.32977
1088
3.32972
1136
3.32968
1145
3.32963
1228
3.32959
1214
3.32954
1179
3.3295
1197
3.32945
1171
3.32941
1180
3.32936
1162
3.32932
1181
3.32927
1169
3.32923
1162
3.32918
1137
3.32914
1156
3.32909
1171
3.32905
1190
3.329
1189
3.32896
1159
3.32891
1156
3.32887
1175
3.32882
1127
3.32878
1168
3.32873
1170
3.32869
1117
3.32865
1136
3.3286
1175
3.32856
1118
3.32851
1137
3.32847
1129
3.32842
1154
3.32838
1147
3.32833
1175
3.32829
1134
3.32824
1165
3.3282
1175
3.32815
1117
3.32811
1148
3.32806
1149
3.32802
1203
3.32797
1164
3.32793
1172
3.32788
1183
3.32784
1188
3.32779
1152
3.32775
1116
3.3277
1134
3.32766
1091
3.32761
1080
3.32757
1157
3.32752
1139
3.32748
1160
3.32743
1171
3.32739
1158
3.32735
1151
3.3273
1112
3.32726
1185
3.32721
1172
3.32717
1165
3.32712
1180
3.32708
1155
3.32703
1182
3.32699
1182
3.32694
1190
3.3269
1163
3.32685
1171
3.32681
1158
3.32676
1132
3.32672
1203
3.32667
1118
3.32663
1158
3.32658
1125
3.32654
1191
3.32649
1197
3.32645
1119
3.3264
1120
3.32636
1109
3.32631
1145
3.32627
1175
3.32622
1145
3.32618
1157
3.32613
1217
3.32609
1127
3.32604
1161
3.326
1103
3.32596
1159
3.32591
1132
3.32587
1113
3.32582
1192
3.32578
1148
3.32573
1189
3.32569
C 1s/7
Not Specified
2017
7
4
14
7
32
0
9
Casa Info Follows
1
Calib M = 282.505 A = 284.6 BE ADD
0
0
0
   XPS     Spectrum    Lens Mode:Hybrid   Resolution:Pass energy 40    Iris(Aper):slot(Slot)
   Acqn. Time(s): 138        Sweeps: 2        Anode:Mono(Al (Mono))(150 W)   Step(meV): 50.0  
   Dwell Time(ms): 150        Charge Neutraliser :On   Acquired On :17/07/04 14:07:32
XPS
63
7
0
Mono(Al (Mono))
1486.69
150
1e+037
1e+037
6000
6000
1e+037
1e+037
FAT
40
1e+037
-4.45
0
1e+037
1e+037
1e+037
1e+037
C
1s
-1
Kinetic Energy
eV
1190.19
0.05
2
Intensity
d
Transmission
d
pulse counting
0.15
2
0
1e+037
1e+037
1e+037
0
922
136
8820
3.16755
3.19198
513
3.16755
474
3.1676
481
3.16765
488
3.16771
487
3.16776
451
3.16781
441
3.16787
455
3.16792
490
3.16797
453
3.16802
421
3.16808
425
3.16813
442
3.16818
469
3.16824
444
3.16829
447
3.16834
454
3.1684
477
3.16845
429
3.1685
424
3.16856
437
3.16861
457
3.16866
430
3.16871
449
3.16877
397
3.16882
467
3.16887
398
3.16893
429
3.16898
405
3.16903
428
3.16909
413
3.16914
421
3.16919
409
3.16925
405
3.1693
421
3.16935
400
3.16941
397
3.16946
394
3.16951
409
3.16956
410
3.16962
364
3.16967
368
3.16972
381
3.16978
353
3.16983
394
3.16988
411
3.16994
376
3.16999
373
3.17004
385
3.1701
388
3.17015
412
3.1702
377
3.17025
360
3.17031
385
3.17036
390
3.17041
381
3.17047
368
3.17052
363
3.17057
381
3.17063
367
3.17068
391
3.17073
376
3.17079
375
3.17084
394
3.17089
382
3.17095
341
3.171
338
3.17105
378
3.1711
402
3.17116
367
3.17121
351
3.17126
345
3.17132
368
3.17137
353
3.17142
346
3.17148
345
3.17153
332
3.17158
366
3.17164
359
3.17169
348
3.17174
330
3.17179
370
3.17185
337
3.1719
338
3.17195
364
3.17201
354
3.17206
371
3.17211
362
3.17217
363
3.17222
373
3.17227
365
3.17233
400
3.17238
403
3.17243
381
3.17249
367
3.17254
371
3.17259
354
3.17264
392
3.1727
358
3.17275
391
3.1728
394
3.17286
383
3.17291
393
3.17296
386
3.17302
410
3.17307
391
3.17312
399
3.17318
411
3.17323
392
3.17328
409
3.17334
420
3.17339
416
3.17344
460
3.17349
492
3.17355
495
3.1736
476
3.17365
468
3.17371
517
3.17376
534
3.17381
578
3.17387
584
3.17392
638
3.17397
652
3.17403
660
3.17408
686
3.17413
775
3.17418
786
3.17424
842
3.17429
914
3.17434
921
3.1744
930
3.17445
954
3.1745
1018
3.17456
1033
3.17461
1046
3.17466
1096
3.17472
1136
3.17477
1104
3.17482
1087
3.17488
1182
3.17493
1112
3.17498
1155
3.17503
1165
3.17509
1138
3.17514
1163
3.17519
1251
3.17525
1186
3.1753
1251
3.17535
1382
3.17541
1410
3.17546
1447
3.17551
1572
3.17557
1703
3.17562
1886
3.17567
2076
3.17572
2249
3.17578
2481
3.17583
2784
3.17588
3041
3.17594
3359
3.17599
3655
3.17604
3901
3.1761
4454
3.17615
4903
3.1762
5324
3.17626
5589
3.17631
6212
3.17636
6799
3.17642
7061
3.17647
7442
3.17652
7834
3.17657
8117
3.17663
8461
3.17668
8544
3.17673
8780
3.17679
8820
3.17684
8696
3.17689
8814
3.17695
8570
3.177
8056
3.17705
7747
3.17711
7259
3.17716
6791
3.17721
6386
3.17726
5930
3.17732
5475
3.17737
5002
3.17742
4469
3.17748
4030
3.17753
3655
3.17758
3245
3.17764
2981
3.17769
2666
3.17774
2394
3.1778
2201
3.17785
2022
3.1779
1860
3.17796
1744
3.17801
1579
3.17806
1523
3.17811
1366
3.17817
1286
3.17822
1232
3.17827
1226
3.17833
1169
3.17838
1163
3.17843
1055
3.17849
1054
3.17854
1077
3.17859
1085
3.17865
1059
3.1787
1043
3.17875
1016
3.17881
1042
3.17886
1042
3.17891
1028
3.17896
1032
3.17902
1045
3.17907
1050
3.17912
1091
3.17918
1067
3.17923
1061
3.17928
1115
3.17934
1099
3.17939
1099
3.17944
1101
3.1795
1097
3.17955
1076
3.1796
1098
3.17965
1062
3.17971
1099
3.17976
1101
3.17981
1132
3.17987
1086
3.17992
1126
3.17997
1115
3.18003
1113
3.18008
1075
3.18013
1143
3.18019
1112
3.18024
1178
3.18029
1178
3.18035
1156
3.1804
1162
3.18045
1179
3.1805
1223
3.18056
1240
3.18061
1232
3.18066
1253
3.18072
1305
3.18077
1306
3.18082
1299
3.18088
1346
3.18093
1361
3.18098
1405
3.18104
1445
3.18109
1573
3.18114
1566
3.1812
1618
3.18125
1733
3.1813
1739
3.18135
1850
3.18141
1925
3.18146
2025
3.18151
2072
3.18157
2078
3.18162
2235
3.18167
2418
3.18173
2523
3.18178
2654
3.18183
2719
3.18189
2713
3.18194
2956
3.18199
3066
3.18204
3170
3.1821
3202
3.18215
3346
3.1822
3299
3.18226
3371
3.18231
3373
3.18236
3322
3.18242
3400
3.18247
3273
3.18252
3261
3.18258
3163
3.18263
3018
3.18268
2897
3.18274
2784
3.18279
2590
3.18284
2413
3.18289
2254
3.18295
1964
3.183
1831
3.18305
1638
3.18311
1489
3.18316
1306
3.18321
1167
3.18327
987
3.18332
906
3.18337
777
3.18343
669
3.18348
541
3.18353
466
3.18358
462
3.18364
403
3.18369
362
3.18374
349
3.1838
307
3.18385
302
3.1839
269
3.18396
220
3.18401
254
3.18406
222
3.18412
220
3.18417
226
3.18422
198
3.18428
193
3.18433
185
3.18438
195
3.18443
203
3.18449
183
3.18454
209
3.18459
175
3.18465
180
3.1847
184
3.18475
186
3.18481
187
3.18486
171
3.18491
177
3.18497
192
3.18502
174
3.18507
171
3.18512
136
3.18518
174
3.18523
187
3.18528
161
3.18534
164
3.18539
170
3.18544
165
3.1855
162
3.18555
179
3.1856
174
3.18566
170
3.18571
158
3.18576
175
3.18582
181
3.18587
179
3.18592
168
3.18597
155
3.18603
146
3.18608
161
3.18613
155
3.18619
176
3.18624
198
3.18629
172
3.18635
165
3.1864
167
3.18645
151
3.18651
166
3.18656
150
3.18661
161
3.18667
162
3.18672
171
3.18677
152
3.18682
178
3.18688
184
3.18693
159
3.18698
148
3.18704
168
3.18709
167
3.18714
159
3.1872
162
3.18725
175
3.1873
172
3.18736
173
3.18741
148
3.18746
168
3.18751
147
3.18757
148
3.18762
138
3.18767
177
3.18773
151
3.18778
149
3.18783
162
3.18789
170
3.18794
178
3.18799
161
3.18805
143
3.1881
148
3.18815
157
3.18821
176
3.18826
164
3.18831
156
3.18836
145
3.18842
172
3.18847
156
3.18852
145
3.18858
173
3.18863
154
3.18868
150
3.18874
152
3.18879
148
3.18884
157
3.1889
140
3.18895
138
3.189
157
3.18905
167
3.18911
163
3.18916
155
3.18921
141
3.18927
167
3.18932
191
3.18937
137
3.18943
152
3.18948
149
3.18953
175
3.18959
169
3.18964
137
3.18969
173
3.18975
148
3.1898
151
3.18985
154
3.1899
142
3.18996
142
3.19001
173
3.19006
154
3.19012
158
3.19017
156
3.19022
160
3.19028
168
3.19033
151
3.19038
148
3.19044
153
3.19049
153
3.19054
146
3.19059
154
3.19065
168
3.1907
162
3.19075
150
3.19081
166
3.19086
160
3.19091
161
3.19097
152
3.19102
146
3.19107
151
3.19113
153
3.19118
164
3.19123
158
3.19129
157
3.19134
148
3.19139
150
3.19144
157
3.1915
172
3.19155
150
3.1916
178
3.19166
183
3.19171
160
3.19176
152
3.19182
154
3.19187
145
3.19192
149
3.19198
end of experiment
