VAMAS Surface Chemical Analysis Standard Data Transfer Format 1988 May 4
Not Specified
Kratos Axis
Not Specified
/d=/data/20170705/2017006144/D.dset
3
Casa Info Follows
0
SourceAnalyserAngle: Not Specified
MAP
REGULAR
3
2
32768
32768
1
Etch Time
s
0
0
0
0
3
wide/2
Not Specified
2017
7
4
11
12
40
0
21
Casa Info Follows
1
Calib M = 283.4 A = 284.6 BE ADD
6
annot text peak Data 1202.49 2174 RGB(0,0,0) Font(14,18,0,0,Times New Roman) Vertical
C 1s
annot text peak Data 1084.49 655 RGB(0,0,0) Font(14,18,0,0,Times New Roman) Vertical
N 1s
annot text peak Data 511.49 1642 RGB(0,0,0) Font(14,18,0,0,Times New Roman) Vertical
O KLL
annot text peak Data 954.49 3746 RGB(0,0,0) Font(14,18,0,0,Times New Roman) Vertical
O 1s
annot text peak Data 1254.49 258 RGB(0,0,0) Font(14,18,0,0,Times New Roman) Vertical
S 2s
annot text peak Data 1318.49 324 RGB(0,0,0) Font(14,18,0,0,Times New Roman) Vertical
S 2p
0
0
   XPS     Spectrum    Lens Mode:Hybrid   Resolution:Pass energy 80    Iris(Aper):slot(Slot)
   Acqn. Time(s): 110        Sweeps: 1        Anode:Mono(Al (Mono))(150 W)   Step(meV): 1000.0
   Dwell Time(ms): 100        Charge Neutraliser :On   Acquired On :17/07/04 11:12:40
XPS
42
7
0
Mono(Al (Mono))
1486.69
150
1e+037
1e+037
6000
6000
1e+037
1e+037
FAT
80
1e+037
-4.45
0
1e+037
1e+037
1e+037
1e+037
Wide
None
-1
Kinetic Energy
eV
386.69
1
2
Intensity
d
Transmission
d
pulse counting
0.1
1
0
1e+037
1e+037
1e+037
0
2202
1
3746
8.48115
10.2364
1342
10.2364
1302
10.2286
1328
10.2207
1344
10.2129
1292
10.2051
1304
10.1972
1368
10.1894
1312
10.1815
1302
10.1737
1302
10.1658
1347
10.158
1409
10.1502
1388
10.1423
1314
10.1345
1348
10.1266
1317
10.1188
1331
10.1109
1382
10.1031
1382
10.0953
1347
10.0874
1378
10.0796
1394
10.0717
1350
10.0639
1373
10.056
1392
10.0492
1336
10.0427
1379
10.0362
1358
10.0296
1375
10.0231
1360
10.0166
1313
10.0101
1340
10.0035
1354
9.997
1386
9.99047
1403
9.98395
1421
9.97742
1385
9.97089
1375
9.96436
1335
9.95784
1393
9.95131
1422
9.94478
1363
9.93825
1406
9.93173
1343
9.9252
1374
9.91867
1425
9.91215
1381
9.90562
1426
9.89909
1422
9.89256
1437
9.88604
1424
9.87951
1352
9.87298
1372
9.86645
1410
9.85993
1421
9.8534
1380
9.84687
1373
9.84034
1423
9.83382
1478
9.82729
1392
9.82076
1428
9.81423
1409
9.80771
1394
9.80118
1435
9.79465
1427
9.78813
1448
9.7816
1423
9.77507
1442
9.76854
1386
9.76202
1431
9.75549
1418
9.74896
1390
9.74243
1397
9.73591
1464
9.72938
1436
9.72439
1449
9.71983
1448
9.71527
1445
9.71071
1459
9.70615
1508
9.7016
1521
9.69704
1518
9.69248
1434
9.68792
1435
9.68336
1484
9.67881
1463
9.67425
1416
9.66969
1491
9.66513
1452
9.66057
1427
9.65602
1450
9.65146
1461
9.6469
1509
9.64234
1480
9.63778
1418
9.63322
1424
9.62867
1490
9.62411
1495
9.61955
1505
9.61499
1542
9.61043
1565
9.60588
1595
9.60132
1587
9.59676
1564
9.5922
1527
9.58764
1495
9.58309
1463
9.57853
1410
9.57397
1422
9.56941
1455
9.56485
1423
9.56029
1383
9.55574
1400
9.55118
1372
9.54662
1273
9.54206
1280
9.5375
1332
9.53294
1354
9.52839
1371
9.52383
1462
9.51927
1516
9.51471
1503
9.51015
1536
9.5056
1574
9.50104
1646
9.4966
1619
9.49219
1642
9.48778
1581
9.48337
1571
9.47896
1480
9.47455
1384
9.47014
1368
9.46573
1284
9.46132
1208
9.45691
1125
9.45251
1079
9.4481
1026
9.44369
995
9.43928
999
9.43487
922
9.43046
942
9.42605
954
9.42164
957
9.41723
961
9.41282
968
9.40841
937
9.40401
927
9.3996
934
9.39519
949
9.39078
940
9.38637
961
9.38196
954
9.37755
907
9.37314
935
9.36873
946
9.36432
964
9.35992
930
9.35551
906
9.3511
910
9.34669
956
9.34228
916
9.33787
937
9.33346
954
9.32905
985
9.32464
882
9.32023
920
9.31583
971
9.31142
965
9.30701
932
9.3026
927
9.29819
927
9.29378
920
9.28937
961
9.28496
929
9.28055
927
9.27708
964
9.27386
905
9.27065
941
9.26744
954
9.26422
979
9.26101
945
9.2578
967
9.25458
980
9.25137
983
9.24816
971
9.24494
954
9.24173
936
9.23852
934
9.2353
922
9.23209
946
9.22888
983
9.22566
934
9.22245
960
9.21924
954
9.21602
945
9.21281
1006
9.2096
909
9.20638
954
9.20317
968
9.19996
943
9.19674
960
9.19353
922
9.19032
946
9.1871
952
9.18389
994
9.18068
952
9.17746
983
9.17425
980
9.17104
978
9.16782
951
9.16461
949
9.1614
946
9.15818
930
9.15497
975
9.15176
985
9.14854
989
9.14533
1007
9.14212
968
9.1389
953
9.13569
959
9.13247
1033
9.12926
978
9.12605
946
9.12284
993
9.11962
1000
9.11731
967
9.11525
935
9.11319
947
9.11112
958
9.10906
976
9.107
1004
9.10494
970
9.10288
967
9.10082
998
9.09876
993
9.0967
988
9.09464
953
9.09258
951
9.09052
950
9.08845
979
9.08639
931
9.08433
969
9.08227
923
9.08021
960
9.07815
975
9.07609
987
9.07403
948
9.07197
914
9.06991
961
9.06785
960
9.06578
988
9.06372
991
9.06166
980
9.0596
973
9.05754
1002
9.05548
956
9.05342
978
9.05136
972
9.0493
969
9.04724
926
9.04518
983
9.04311
971
9.04105
970
9.03899
968
9.03693
991
9.03487
985
9.03281
936
9.03075
975
9.02869
967
9.02663
1037
9.02457
994
9.0225
970
9.02044
1020
9.01838
985
9.01632
966
9.01335
966
9.01012
959
9.0069
960
9.00367
987
9.00044
990
8.99721
1030
8.99398
999
8.99076
965
8.98753
958
8.9843
946
8.98107
1020
8.97784
1006
8.97462
1003
8.97139
969
8.96816
1012
8.96493
1008
8.9617
948
8.95848
945
8.95525
997
8.95202
980
8.94879
954
8.94556
984
8.94234
987
8.93911
988
8.93588
1001
8.93265
986
8.92942
1001
8.9262
960
8.92297
993
8.91974
998
8.91651
1014
8.91328
945
8.91006
951
8.90683
1004
8.9036
956
8.90037
996
8.89714
947
8.89392
950
8.89069
996
8.88746
1029
8.88483
1026
8.88236
1003
8.8799
973
8.87743
963
8.87497
957
8.87251
1034
8.87004
1048
8.86758
1002
8.86511
1000
8.86265
1039
8.86019
1017
8.85772
1046
8.85526
1011
8.85279
990
8.85033
1046
8.84786
1041
8.8454
1000
8.84294
1018
8.84047
1039
8.83801
1013
8.83554
943
8.83308
978
8.83062
1001
8.82815
1038
8.82569
1006
8.82322
1002
8.82076
1061
8.81829
1000
8.81583
1000
8.81337
1006
8.8109
1003
8.80844
1013
8.80597
1014
8.80351
1019
8.80104
990
8.79858
1022
8.79612
987
8.79365
997
8.79119
994
8.78872
1041
8.78626
1078
8.7838
996
8.78133
985
8.77887
1008
8.7764
1008
8.77394
1014
8.77147
967
8.76901
989
8.76655
1022
8.76408
1056
8.76162
1002
8.75915
1036
8.75669
1008
8.75422
970
8.75176
1033
8.7493
1042
8.74683
987
8.74437
1014
8.7419
997
8.73944
1007
8.73885
1019
8.73879
1087
8.73873
1055
8.73867
1005
8.73861
968
8.73855
994
8.73849
1016
8.73843
993
8.73837
1048
8.73831
1059
8.73825
1037
8.73819
1061
8.73813
1025
8.73806
1007
8.738
1027
8.73794
1028
8.73788
1014
8.73782
1003
8.73776
1036
8.7377
1048
8.73764
1018
8.73758
1040
8.73752
942
8.73746
977
8.7374
989
8.73734
1010
8.73728
1001
8.73722
1021
8.73716
1028
8.7371
1050
8.73704
1033
8.73698
1021
8.73692
1011
8.73686
1064
8.7368
1082
8.73674
1025
8.73668
1014
8.73662
1063
8.73655
1012
8.73649
1027
8.73643
1069
8.73637
1023
8.73631
1056
8.73625
1045
8.73619
1027
8.73613
993
8.73607
982
8.73601
1005
8.73595
1020
8.73589
1027
8.73468
1038
8.73314
1021
8.73161
997
8.73007
1007
8.72854
1064
8.727
1077
8.72547
1010
8.72393
1035
8.7224
1010
8.72086
983
8.71933
1018
8.71779
1024
8.71626
1008
8.71472
1036
8.71319
1012
8.71165
1061
8.71012
1051
8.70858
1052
8.70705
975
8.70551
1022
8.70398
1022
8.70244
1021
8.70091
974
8.69937
1006
8.69784
1032
8.6963
1032
8.69477
1040
8.69323
979
8.6917
1035
8.69016
1033
8.68863
1016
8.68709
1043
8.68556
1061
8.68402
1056
8.68249
995
8.68095
1030
8.67942
1027
8.67788
997
8.67635
1015
8.67481
1033
8.67328
1008
8.67174
1018
8.67021
1037
8.66867
1071
8.66714
1029
8.6656
1051
8.66407
1055
8.66253
1046
8.661
1045
8.65946
1044
8.65793
1054
8.65639
1054
8.65486
1070
8.65332
1032
8.65179
999
8.65025
982
8.64872
993
8.64718
983
8.64565
1040
8.64411
1069
8.64417
1062
8.64468
1009
8.64518
1009
8.64569
1049
8.6462
1036
8.6467
996
8.64721
1035
8.64772
1041
8.64822
1016
8.64873
1060
8.64924
1028
8.64974
1026
8.65025
1012
8.65075
1048
8.65126
1032
8.65177
1030
8.65228
1028
8.65278
1024
8.65329
1048
8.65379
1003
8.6543
1014
8.65481
1033
8.65531
1028
8.65582
1048
8.65633
991
8.65683
1030
8.65734
1019
8.65785
1002
8.65835
973
8.65886
994
8.65937
1020
8.65987
1046
8.66038
1006
8.66089
1054
8.66139
1034
8.6619
1027
8.66241
1005
8.66291
1043
8.66342
1038
8.66393
1045
8.66317
1035
8.66206
957
8.66095
995
8.65984
1029
8.65872
959
8.65761
1016
8.6565
992
8.65539
974
8.65428
974
8.65317
1051
8.65206
1009
8.65094
982
8.64983
1035
8.64872
963
8.64761
993
8.6465
1004
8.64539
1035
8.64428
1031
8.64317
1072
8.64205
1068
8.64094
1139
8.63983
1061
8.63872
1061
8.63761
1062
8.6365
1019
8.63539
951
8.63427
964
8.63316
896
8.63205
904
8.63094
855
8.62983
851
8.62872
819
8.62761
763
8.6265
740
8.62538
711
8.62427
642
8.62316
640
8.62205
636
8.62094
634
8.61983
598
8.61872
640
8.6176
807
8.61649
1466
8.61538
2843
8.61427
3746
8.61316
2950
8.61205
1397
8.61094
634
8.60983
520
8.60871
461
8.6076
424
8.60649
460
8.60538
485
8.60427
494
8.60316
467
8.60205
452
8.60093
471
8.59982
453
8.59871
455
8.5976
424
8.59692
451
8.59635
486
8.59579
446
8.59522
470
8.59466
468
8.5941
422
8.59353
434
8.59297
492
8.5924
450
8.59184
444
8.59128
463
8.59071
466
8.59015
440
8.58958
438
8.58902
447
8.58846
451
8.58789
458
8.58733
471
8.58676
449
8.5862
476
8.58564
497
8.58507
511
8.58451
437
8.58394
459
8.58338
441
8.58282
454
8.58225
443
8.58169
447
8.58112
439
8.58056
469
8.58
452
8.57943
451
8.57887
452
8.5783
452
8.57774
449
8.57718
466
8.57661
438
8.57605
449
8.57548
434
8.57492
471
8.57413
443
8.57328
475
8.57243
453
8.57158
494
8.57074
433
8.56989
450
8.56904
446
8.56819
467
8.56734
440
8.56649
464
8.56564
456
8.56479
463
8.56394
466
8.56309
465
8.56224
485
8.56139
470
8.56055
449
8.5597
460
8.55885
439
8.558
484
8.55715
479
8.5563
465
8.55545
443
8.5546
426
8.55375
460
8.5529
507
8.55205
478
8.5512
453
8.55035
449
8.54951
493
8.54866
514
8.54781
479
8.54696
464
8.54611
478
8.54526
476
8.54441
463
8.54356
488
8.54271
495
8.54186
516
8.54101
482
8.54016
480
8.53932
494
8.53847
472
8.53762
484
8.53677
471
8.53592
537
8.53507
481
8.53422
467
8.53337
495
8.53252
493
8.5335
516
8.535
497
8.5365
520
8.538
488
8.5395
503
8.541
485
8.5425
457
8.544
460
8.5455
462
8.547
450
8.5485
490
8.55
501
8.5515
460
8.553
496
8.5545
490
8.556
483
8.5575
437
8.55899
474
8.56049
489
8.56199
483
8.56349
451
8.56499
437
8.56649
496
8.56799
552
8.56949
655
8.57099
649
8.57249
560
8.57399
500
8.57549
458
8.57699
458
8.57849
467
8.57999
502
8.58149
481
8.58298
462
8.58448
452
8.58598
508
8.58748
493
8.58898
457
8.59048
505
8.59198
481
8.59135
471
8.59011
469
8.58887
500
8.58763
488
8.58639
458
8.58515
492
8.58392
488
8.58268
481
8.58144
484
8.5802
491
8.57896
469
8.57773
524
8.57649
484
8.57525
474
8.57401
476
8.57277
475
8.57154
476
8.5703
477
8.56906
514
8.56782
466
8.56658
493
8.56534
503
8.56411
468
8.56287
505
8.56163
475
8.56039
501
8.55915
483
8.55792
476
8.55668
502
8.55544
505
8.5542
496
8.55296
509
8.55173
506
8.55049
505
8.54925
497
8.54801
471
8.54677
488
8.54553
513
8.5443
492
8.54306
521
8.54182
510
8.54058
517
8.53934
504
8.53811
469
8.53687
508
8.53563
539
8.53439
541
8.53315
484
8.53191
512
8.53068
468
8.52944
492
8.5282
493
8.52696
495
8.52572
491
8.52449
492
8.52325
484
8.52201
522
8.52077
544
8.51953
523
8.5183
510
8.51706
454
8.51582
499
8.51458
500
8.51334
490
8.5121
514
8.51087
517
8.50963
494
8.50839
540
8.50715
516
8.50591
530
8.50468
552
8.50344
550
8.5022
534
8.50096
521
8.49972
497
8.49849
543
8.49725
549
8.49601
554
8.49477
522
8.49353
564
8.49229
561
8.49106
526
8.48982
495
8.48858
477
8.48734
465
8.4861
409
8.48487
371
8.48363
356
8.48239
349
8.48115
333
8.4832
289
8.48617
269
8.48914
265
8.49212
235
8.49509
247
8.49806
285
8.50104
356
8.50401
536
8.50698
795
8.50995
1194
8.51293
1656
8.5159
2116
8.51887
2174
8.52185
926
8.52482
212
8.52779
129
8.53077
110
8.53374
110
8.53671
99
8.53969
98
8.54266
98
8.54563
98
8.5486
95
8.55158
99
8.55455
115
8.55752
134
8.5605
135
8.56347
117
8.56644
98
8.56942
114
8.57239
114
8.57536
111
8.57833
101
8.58131
97
8.58428
105
8.58725
93
8.59023
91
8.5932
101
8.59617
102
8.59915
117
8.60212
106
8.60509
109
8.60806
114
8.61104
118
8.61401
106
8.61698
101
8.61996
97
8.62293
95
8.6259
95
8.62888
108
8.63012
99
8.63087
115
8.63163
108
8.63238
97
8.63314
109
8.63389
94
8.63465
93
8.6354
93
8.63616
99
8.63691
97
8.63767
98
8.63842
112
8.63918
164
8.63993
226
8.64069
258
8.64144
189
8.64219
125
8.64295
111
8.6437
104
8.64446
80
8.64521
92
8.64597
82
8.64672
93
8.64748
102
8.64823
105
8.64899
82
8.64974
95
8.6505
90
8.65125
90
8.65201
80
8.65276
90
8.65352
84
8.65427
74
8.65503
78
8.65578
85
8.65654
96
8.65729
78
8.65804
72
8.6588
96
8.65955
90
8.66031
92
8.66106
101
8.66182
87
8.66257
99
8.66333
93
8.66408
102
8.66484
104
8.66559
106
8.66635
95
8.6671
91
8.66786
87
8.66861
88
8.66937
83
8.67012
91
8.67088
94
8.67163
106
8.67239
104
8.67314
99
8.6739
76
8.67465
87
8.6743
82
8.67363
91
8.67297
78
8.6723
72
8.67163
75
8.67097
70
8.6703
86
8.66964
85
8.66897
63
8.6683
63
8.66764
64
8.66697
64
8.66631
74
8.66564
78
8.66498
65
8.66431
98
8.66364
191
8.66298
304
8.66231
324
8.66165
168
8.66098
79
8.66032
67
8.65965
52
8.65898
49
8.65832
51
8.65765
49
8.65699
47
8.65632
60
8.65565
54
8.65499
53
8.65432
60
8.65366
55
8.65299
64
8.65233
71
8.65166
68
8.65099
63
8.65033
52
8.64966
55
8.649
49
8.64833
46
8.64767
53
8.647
49
8.64633
41
8.64567
45
8.645
52
8.64434
58
8.64367
62
8.643
41
8.64234
50
8.64167
55
8.64101
59
8.64034
62
8.63968
53
8.63901
60
8.63834
53
8.63768
43
8.6398
47
8.64272
50
8.64563
57
8.64854
50
8.65146
51
8.65437
52
8.65728
52
8.6602
44
8.66311
54
8.66602
51
8.66894
62
8.67185
54
8.67476
41
8.67768
48
8.68059
62
8.6835
57
8.68642
59
8.68933
61
8.69224
59
8.69516
51
8.69807
53
8.70098
65
8.7039
50
8.70681
66
8.70972
59
8.71264
55
8.71555
54
8.71846
54
8.72137
62
8.72429
60
8.7272
56
8.73011
52
8.73303
56
8.73594
62
8.73885
56
8.74177
53
8.74468
67
8.74759
52
8.75051
57
8.75342
53
8.75633
55
8.75925
62
8.76216
70
8.76507
56
8.76799
54
8.7709
50
8.77381
42
8.77673
59
8.77964
44
8.78255
53
8.78547
63
8.78838
63
8.79129
58
8.79421
61
8.79712
63
8.80003
60
8.80295
56
8.80586
61
8.80877
50
8.81169
51
8.8146
51
8.81751
70
8.82043
50
8.82334
51
8.82625
61
8.82916
62
8.83208
67
8.83499
40
8.8379
65
8.84082
52
8.84373
57
8.84664
69
8.84956
62
8.85247
58
8.85538
65
8.8583
56
8.86121
49
8.86412
50
8.86704
66
8.86995
71
8.87286
57
8.87578
56
8.87869
61
8.8816
61
8.88452
76
8.88743
53
8.89034
55
8.89326
56
8.89617
57
8.89908
58
8.902
63
8.90491
49
8.90782
50
8.91074
40
8.91365
47
8.91656
50
8.91948
47
8.92239
48
8.9253
49
8.92822
47
8.93113
83
8.93404
91
8.93695
87
8.93987
105
8.94051
119
8.94051
128
8.94051
114
8.94051
64
8.94051
63
8.94051
46
8.94051
39
8.94051
47
8.94051
47
8.94051
50
8.94051
50
8.94051
57
8.94051
47
8.94051
65
8.94051
61
8.94051
54
8.94051
63
8.94051
48
8.94051
51
8.94051
36
8.94051
33
8.94051
27
8.94051
32
8.94051
12
8.94051
5
8.94051
1
8.94051
O 1s/5
Not Specified
2017
7
4
14
27
29
0
9
Casa Info Follows
1
Calib M = 283.4 A = 284.6 BE ADD
0
0
0
   XPS     Spectrum    Lens Mode:Hybrid   Resolution:Pass energy 40    Iris(Aper):slot(Slot)
   Acqn. Time(s): 108        Sweeps: 2        Anode:Mono(Al (Mono))(150 W)   Step(meV): 50.0  
   Dwell Time(ms): 150        Charge Neutraliser :On   Acquired On :17/07/04 14:27:29
XPS
42
7
0
Mono(Al (Mono))
1486.69
150
1e+037
1e+037
6000
6000
1e+037
1e+037
FAT
40
1e+037
-4.45
0
1e+037
1e+037
1e+037
1e+037
O
1s
-1
Kinetic Energy
eV
946.69
0.05
2
Intensity
d
Transmission
d
pulse counting
0.15
2
0
1e+037
1e+037
1e+037
0
722
470
4914
3.32569
3.34183
693
3.34183
712
3.34178
729
3.34174
726
3.34169
696
3.34165
729
3.3416
715
3.34156
690
3.34151
698
3.34147
702
3.34142
648
3.34138
711
3.34133
721
3.34129
695
3.34124
676
3.3412
709
3.34115
712
3.34111
651
3.34107
637
3.34102
666
3.34098
693
3.34093
743
3.34089
683
3.34084
689
3.3408
708
3.34075
689
3.34071
645
3.34066
647
3.34062
684
3.34057
664
3.34053
630
3.34048
670
3.34044
682
3.34039
653
3.34035
652
3.3403
683
3.34026
652
3.34021
637
3.34017
660
3.34012
666
3.34008
649
3.34003
652
3.33999
628
3.33994
635
3.3399
659
3.33985
636
3.33981
663
3.33976
672
3.33972
675
3.33968
661
3.33963
643
3.33959
676
3.33954
648
3.3395
687
3.33945
727
3.33941
712
3.33936
651
3.33932
658
3.33927
670
3.33923
679
3.33918
680
3.33914
668
3.33909
675
3.33905
644
3.339
647
3.33896
685
3.33891
677
3.33887
677
3.33882
683
3.33878
694
3.33873
684
3.33869
672
3.33864
662
3.3386
651
3.33855
642
3.33851
658
3.33846
698
3.33842
641
3.33837
680
3.33833
678
3.33829
668
3.33824
648
3.3382
666
3.33815
688
3.33811
708
3.33806
642
3.33802
707
3.33797
688
3.33793
712
3.33788
705
3.33784
695
3.33779
678
3.33775
725
3.3377
674
3.33766
651
3.33761
678
3.33757
668
3.33752
727
3.33748
711
3.33743
691
3.33739
697
3.33734
714
3.3373
707
3.33725
722
3.33721
751
3.33716
700
3.33712
687
3.33707
756
3.33703
762
3.33698
704
3.33694
705
3.3369
781
3.33685
789
3.33681
792
3.33676
781
3.33672
776
3.33667
789
3.33663
830
3.33658
834
3.33654
859
3.33649
845
3.33645
850
3.3364
891
3.33636
934
3.33631
961
3.33627
963
3.33622
1026
3.33618
1000
3.33613
1056
3.33609
1123
3.33604
1165
3.336
1169
3.33595
1216
3.33591
1263
3.33586
1356
3.33582
1381
3.33577
1425
3.33573
1463
3.33568
1586
3.33564
1591
3.3356
1727
3.33555
1834
3.33551
1856
3.33546
1974
3.33542
2077
3.33537
2143
3.33533
2242
3.33528
2392
3.33524
2456
3.33519
2512
3.33515
2703
3.3351
2805
3.33506
2959
3.33501
2975
3.33497
3173
3.33492
3322
3.33488
3350
3.33483
3546
3.33479
3631
3.33474
3767
3.3347
3971
3.33465
4054
3.33461
4106
3.33456
4271
3.33452
4306
3.33447
4436
3.33443
4567
3.33438
4598
3.33434
4664
3.33429
4776
3.33425
4757
3.33421
4687
3.33416
4817
3.33412
4825
3.33407
4779
3.33403
4850
3.33398
4914
3.33394
4784
3.33389
4875
3.33385
4889
3.3338
4704
3.33376
4728
3.33371
4568
3.33367
4496
3.33362
4575
3.33358
4498
3.33353
4434
3.33349
4269
3.33344
4214
3.3334
4166
3.33335
4077
3.33331
3986
3.33326
3951
3.33322
3814
3.33317
3691
3.33313
3543
3.33308
3457
3.33304
3378
3.33299
3192
3.33295
3069
3.3329
2972
3.33286
2802
3.33282
2754
3.33277
2559
3.33273
2584
3.33268
2426
3.33264
2231
3.33259
2142
3.33255
1916
3.3325
1804
3.33246
1774
3.33241
1610
3.33237
1495
3.33232
1424
3.33228
1259
3.33223
1158
3.33219
1107
3.33214
1024
3.3321
993
3.33205
956
3.33201
894
3.33196
822
3.33192
786
3.33187
736
3.33183
719
3.33178
703
3.33174
676
3.33169
679
3.33165
633
3.3316
602
3.33156
604
3.33151
588
3.33147
644
3.33143
612
3.33138
601
3.33134
570
3.33129
585
3.33125
514
3.3312
544
3.33116
581
3.33111
534
3.33107
559
3.33102
560
3.33098
533
3.33093
559
3.33089
559
3.33084
542
3.3308
545
3.33075
581
3.33071
558
3.33066
532
3.33062
578
3.33057
551
3.33053
522
3.33048
548
3.33044
540
3.33039
552
3.33035
523
3.3303
546
3.33026
515
3.33021
543
3.33017
567
3.33012
523
3.33008
521
3.33004
539
3.32999
547
3.32995
521
3.3299
496
3.32986
555
3.32981
528
3.32977
521
3.32972
573
3.32968
514
3.32963
506
3.32959
495
3.32954
498
3.3295
536
3.32945
537
3.32941
511
3.32936
534
3.32932
531
3.32927
531
3.32923
553
3.32918
554
3.32914
539
3.32909
558
3.32905
497
3.329
514
3.32896
508
3.32891
495
3.32887
531
3.32882
555
3.32878
532
3.32873
518
3.32869
505
3.32865
509
3.3286
525
3.32856
537
3.32851
531
3.32847
539
3.32842
523
3.32838
495
3.32833
470
3.32829
479
3.32824
517
3.3282
528
3.32815
531
3.32811
538
3.32806
555
3.32802
550
3.32797
514
3.32793
540
3.32788
522
3.32784
547
3.32779
538
3.32775
512
3.3277
536
3.32766
563
3.32761
532
3.32757
580
3.32752
529
3.32748
514
3.32743
515
3.32739
533
3.32735
521
3.3273
536
3.32726
553
3.32721
519
3.32717
524
3.32712
531
3.32708
503
3.32703
515
3.32699
495
3.32694
523
3.3269
543
3.32685
559
3.32681
549
3.32676
511
3.32672
512
3.32667
500
3.32663
569
3.32658
555
3.32654
495
3.32649
507
3.32645
541
3.3264
562
3.32636
532
3.32631
520
3.32627
513
3.32622
514
3.32618
526
3.32613
542
3.32609
542
3.32604
515
3.326
524
3.32596
541
3.32591
527
3.32587
528
3.32582
518
3.32578
545
3.32573
503
3.32569
C 1s/6
Not Specified
2017
7
4
14
27
29
0
9
Casa Info Follows
1
Calib M = 283.4 A = 284.6 BE ADD
0
0
0
   XPS     Spectrum    Lens Mode:Hybrid   Resolution:Pass energy 40    Iris(Aper):slot(Slot)
   Acqn. Time(s): 138        Sweeps: 2        Anode:Mono(Al (Mono))(150 W)   Step(meV): 50.0  
   Dwell Time(ms): 150        Charge Neutraliser :On   Acquired On :17/07/04 14:27:29
XPS
42
7
0
Mono(Al (Mono))
1486.69
150
1e+037
1e+037
6000
6000
1e+037
1e+037
FAT
40
1e+037
-4.45
0
1e+037
1e+037
1e+037
1e+037
C
1s
-1
Kinetic Energy
eV
1190.19
0.05
2
Intensity
d
Transmission
d
pulse counting
0.15
2
0
1e+037
1e+037
1e+037
0
922
93
3270
3.16755
3.19198
318
3.16755
371
3.1676
378
3.16765
399
3.16771
388
3.16776
368
3.16781
355
3.16787
384
3.16792
338
3.16797
355
3.16802
347
3.16808
367
3.16813
358
3.16818
360
3.16824
336
3.16829
349
3.16834
349
3.1684
347
3.16845
350
3.1685
346
3.16856
324
3.16861
335
3.16866
320
3.16871
352
3.16877
345
3.16882
360
3.16887
368
3.16893
350
3.16898
318
3.16903
319
3.16909
329
3.16914
324
3.16919
312
3.16925
329
3.1693
332
3.16935
348
3.16941
308
3.16946
292
3.16951
312
3.16956
304
3.16962
305
3.16967
332
3.16972
302
3.16978
279
3.16983
286
3.16988
287
3.16994
313
3.16999
290
3.17004
274
3.1701
324
3.17015
301
3.1702
288
3.17025
275
3.17031
257
3.17036
285
3.17041
303
3.17047
281
3.17052
281
3.17057
275
3.17063
281
3.17068
286
3.17073
279
3.17079
299
3.17084
285
3.17089
295
3.17095
281
3.171
291
3.17105
289
3.1711
291
3.17116
287
3.17121
298
3.17126
262
3.17132
253
3.17137
260
3.17142
251
3.17148
278
3.17153
286
3.17158
279
3.17164
283
3.17169
258
3.17174
263
3.17179
258
3.17185
289
3.1719
278
3.17195
249
3.17201
244
3.17206
250
3.17211
262
3.17217
259
3.17222
273
3.17227
284
3.17233
267
3.17238
251
3.17243
245
3.17249
260
3.17254
271
3.17259
274
3.17264
279
3.1727
268
3.17275
281
3.1728
279
3.17286
281
3.17291
261
3.17296
241
3.17302
285
3.17307
257
3.17312
272
3.17318
288
3.17323
302
3.17328
283
3.17334
261
3.17339
267
3.17344
284
3.17349
268
3.17355
270
3.1736
236
3.17365
262
3.17371
262
3.17376
278
3.17381
277
3.17387
284
3.17392
274
3.17397
265
3.17403
247
3.17408
276
3.17413
283
3.17418
262
3.17424
280
3.17429
275
3.17434
271
3.1744
291
3.17445
276
3.1745
285
3.17456
307
3.17461
303
3.17466
284
3.17472
292
3.17477
277
3.17482
308
3.17488
314
3.17493
313
3.17498
303
3.17503
321
3.17509
334
3.17514
318
3.17519
322
3.17525
349
3.1753
338
3.17535
340
3.17541
353
3.17546
378
3.17551
414
3.17557
376
3.17562
424
3.17567
427
3.17572
440
3.17578
456
3.17583
455
3.17588
490
3.17594
461
3.17599
502
3.17604
514
3.1761
545
3.17615
514
3.1762
559
3.17626
591
3.17631
657
3.17636
627
3.17642
674
3.17647
691
3.17652
673
3.17657
738
3.17663
761
3.17668
733
3.17673
718
3.17679
771
3.17684
806
3.17689
779
3.17695
841
3.177
824
3.17705
810
3.17711
831
3.17716
873
3.17721
820
3.17726
865
3.17732
857
3.17737
870
3.17742
907
3.17748
872
3.17753
894
3.17758
881
3.17764
898
3.17769
941
3.17774
951
3.1778
952
3.17785
953
3.1779
1009
3.17796
1084
3.17801
1089
3.17806
1123
3.17811
1123
3.17817
1190
3.17822
1196
3.17827
1293
3.17833
1357
3.17838
1458
3.17843
1495
3.17849
1490
3.17854
1560
3.17859
1671
3.17865
1673
3.1787
1712
3.17875
1784
3.17881
1899
3.17886
1929
3.17891
1911
3.17896
1945
3.17902
1990
3.17907
2065
3.17912
1987
3.17918
2003
3.17923
1979
3.17928
2026
3.17934
1975
3.17939
1964
3.17944
1985
3.1795
1903
3.17955
1981
3.1796
1846
3.17965
1908
3.17971
1865
3.17976
1917
3.17981
1905
3.17987
1932
3.17992
1914
3.17997
1921
3.18003
1958
3.18008
2037
3.18013
2079
3.18019
2091
3.18024
2153
3.18029
2172
3.18035
2171
3.1804
2249
3.18045
2314
3.1805
2354
3.18056
2385
3.18061
2517
3.18066
2592
3.18072
2689
3.18077
2672
3.18082
2794
3.18088
2843
3.18093
2933
3.18098
2990
3.18104
2962
3.18109
3023
3.18114
3054
3.1812
3138
3.18125
3166
3.1813
3140
3.18135
3270
3.18141
3243
3.18146
3188
3.18151
3197
3.18157
3097
3.18162
3006
3.18167
2963
3.18173
2851
3.18178
2715
3.18183
2567
3.18189
2439
3.18194
2279
3.18199
2162
3.18204
1988
3.1821
1805
3.18215
1657
3.1822
1509
3.18226
1425
3.18231
1196
3.18236
1122
3.18242
1013
3.18247
966
3.18252
840
3.18258
737
3.18263
646
3.18268
593
3.18274
519
3.18279
442
3.18284
393
3.18289
388
3.18295
328
3.183
316
3.18305
270
3.18311
247
3.18316
227
3.18321
206
3.18327
188
3.18332
206
3.18337
197
3.18343
181
3.18348
176
3.18353
149
3.18358
143
3.18364
144
3.18369
149
3.18374
140
3.1838
151
3.18385
149
3.1839
158
3.18396
148
3.18401
129
3.18406
138
3.18412
140
3.18417
137
3.18422
135
3.18428
123
3.18433
115
3.18438
125
3.18443
131
3.18449
136
3.18454
128
3.18459
135
3.18465
137
3.1847
132
3.18475
129
3.18481
128
3.18486
112
3.18491
130
3.18497
131
3.18502
134
3.18507
120
3.18512
115
3.18518
133
3.18523
130
3.18528
130
3.18534
114
3.18539
121
3.18544
120
3.1855
129
3.18555
124
3.1856
128
3.18566
119
3.18571
141
3.18576
126
3.18582
106
3.18587
120
3.18592
119
3.18597
112
3.18603
117
3.18608
120
3.18613
124
3.18619
136
3.18624
123
3.18629
129
3.18635
111
3.1864
133
3.18645
141
3.18651
133
3.18656
123
3.18661
123
3.18667
130
3.18672
119
3.18677
97
3.18682
125
3.18688
103
3.18693
110
3.18698
109
3.18704
120
3.18709
116
3.18714
126
3.1872
130
3.18725
106
3.1873
123
3.18736
117
3.18741
122
3.18746
112
3.18751
118
3.18757
110
3.18762
108
3.18767
123
3.18773
133
3.18778
115
3.18783
116
3.18789
108
3.18794
129
3.18799
119
3.18805
107
3.1881
112
3.18815
121
3.18821
112
3.18826
107
3.18831
113
3.18836
117
3.18842
118
3.18847
127
3.18852
121
3.18858
138
3.18863
124
3.18868
109
3.18874
120
3.18879
134
3.18884
142
3.1889
122
3.18895
132
3.189
115
3.18905
139
3.18911
123
3.18916
113
3.18921
106
3.18927
107
3.18932
103
3.18937
103
3.18943
110
3.18948
97
3.18953
111
3.18959
119
3.18964
109
3.18969
110
3.18975
110
3.1898
114
3.18985
113
3.1899
108
3.18996
105
3.19001
95
3.19006
109
3.19012
124
3.19017
126
3.19022
117
3.19028
111
3.19033
122
3.19038
107
3.19044
112
3.19049
112
3.19054
130
3.19059
115
3.19065
119
3.1907
103
3.19075
113
3.19081
115
3.19086
123
3.19091
108
3.19097
108
3.19102
121
3.19107
122
3.19113
112
3.19118
128
3.19123
97
3.19129
121
3.19134
119
3.19139
107
3.19144
139
3.1915
111
3.19155
119
3.1916
120
3.19166
111
3.19171
93
3.19176
109
3.19182
114
3.19187
139
3.19192
118
3.19198
end of experiment
