[Measurement conditions]
Sample identification,
Comment - 1,"Configuration=Stage for flat samples/holders, Owner=User-1, Creation date=3/27/2015 11:56:23 AM"
Comment - 2,"Goniometer=Theta/Theta; Minimum step size 2Theta:0.0001; Minimum step size Omega:0.0001"
Comment - 3,"Sample stage=Stage for flat samples/holders"
Comment - 4,"Diffractometer system=EMPYREAN"
Comment - 5,"Measurement program=C:\PANalytical\Data Collector\Programs\Powder - Copy.xrdmp, Identifier={BEEA10DD-8FD6-4721-8940-4FBC5A4262A1}"
Comment - 6,"Fine Calibration Offset for 2Theta = -0.0130 deg"
Comment - 7,"Fine Calibration Offset for Omega = -0.0070 deg"
Anode material,Cu
K-Alpha1 wavelength,1.5405980
K-Alpha2 wavelength,1.5444260
Ratio K-Alpha2/K-Alpha1,0.500
Divergence slit,Fixed,0.38mm
Monochromator used,NO
Generator voltage, 40
Tube current, 35
File date and time,24/Jul/2017 16:14
Unit cell,
h k l, 0 0 0
Scan axis,Gonio
Scan range,5.020799997,89.999988363
Scan step size,0.0262606
No. of points, 3236
Scan type,CONTINUOUS
Time per step,18.615
[Scan points]
Angle,Intensity
5.033930280,1352.0
5.060190845,1362.0
5.086451410,1366.0
5.112711975,1410.0
5.138972540,1372.0
5.165233105,1438.0
5.191493670,1315.0
5.217754235,1361.0
5.244014800,1346.0
5.270275365,1405.0
5.296535930,1428.0
5.322796495,1369.0
5.349057060,1342.0
5.375317625,1433.0
5.401578190,1485.0
5.427838755,1370.0
5.454099320,1411.0
5.480359885,1401.0
5.506620450,1359.0
5.532881015,1309.0
5.559141580,1381.0
5.585402145,1397.0
5.611662710,1367.0
5.637923275,1349.0
5.664183840,1390.0
5.690444405,1411.0
5.716704970,1407.0
5.742965535,1361.0
5.769226100,1335.0
5.795486665,1305.0
5.821747230,1315.0
5.848007795,1328.0
5.874268360,1416.0
5.900528925,1329.0
5.926789490,1381.0
5.953050055,1303.0
5.979310620,1341.0
6.005571185,1322.0
6.031831750,1379.0
6.058092315,1370.0
6.084352880,1313.0
6.110613445,1302.0
6.136874010,1342.0
6.163134575,1325.0
6.189395140,1317.0
6.215655705,1304.0
6.241916270,1313.0
6.268176835,1389.0
6.294437400,1341.0
6.320697965,1323.0
6.346958530,1347.0
6.373219095,1372.0
6.399479660,1277.0
6.425740225,1386.0
6.452000790,1284.0
6.478261355,1334.0
6.504521920,1333.0
6.530782485,1366.0
6.557043050,1406.0
6.583303615,1269.0
6.609564180,1358.0
6.635824745,1360.0
6.662085310,1277.0
6.688345875,1311.0
6.714606440,1312.0
6.740867006,1235.0
6.767127571,1346.0
6.793388136,1292.0
6.819648701,1326.0
6.845909266,1354.0
6.872169831,1303.0
6.898430396,1341.0
6.924690961,1282.0
6.950951526,1358.0
6.977212091,1349.0
7.003472656,1276.0
7.029733221,1284.0
7.055993786,1313.0
7.082254351,1285.0
7.108514916,1334.0
7.134775481,1296.0
7.161036046,1221.0
7.187296611,1240.0
7.213557176,1353.0
7.239817741,1267.0
7.266078306,1317.0
7.292338871,1329.0
7.318599436,1237.0
7.344860001,1312.0
7.371120566,1258.0
7.397381131,1276.0
7.423641696,1254.0
7.449902261,1264.0
7.476162826,1269.0
7.502423391,1305.0
7.528683956,1290.0
7.554944521,1322.0
7.581205086,1278.0
7.607465651,1321.0
7.633726216,1230.0
7.659986781,1335.0
7.686247346,1303.0
7.712507911,1274.0
7.738768476,1275.0
7.765029041,1256.0
7.791289606,1311.0
7.817550171,1282.0
7.843810736,1251.0
7.870071301,1309.0
7.896331866,1257.0
7.922592431,1329.0
7.948852996,1285.0
7.975113561,1287.0
8.001374126,1292.0
8.027634691,1267.0
8.053895256,1275.0
8.080155821,1256.0
8.106416386,1252.0
8.132676951,1238.0
8.158937516,1298.0
8.185198081,1299.0
8.211458646,1271.0
8.237719211,1244.0
8.263979776,1286.0
8.290240341,1279.0
8.316500906,1187.0
8.342761471,1201.0
8.369022036,1227.0
8.395282601,1262.0
8.421543166,1282.0
8.447803731,1269.0
8.474064296,1238.0
8.500324861,1200.0
8.526585426,1267.0
8.552845991,1248.0
8.579106556,1212.0
8.605367121,1205.0
8.631627686,1221.0
8.657888251,1236.0
8.684148816,1185.0
8.710409381,1234.0
8.736669946,1290.0
8.762930511,1218.0
8.789191076,1221.0
8.815451641,1217.0
8.841712206,1178.0
8.867972771,1185.0
8.894233336,1145.0
8.920493901,1227.0
8.946754466,1172.0
8.973015031,1206.0
8.999275596,1216.0
9.025536161,1217.0
9.051796726,1180.0
9.078057291,1200.0
9.104317856,1251.0
9.130578421,1138.0
9.156838986,1183.0
9.183099551,1243.0
9.209360116,1187.0
9.235620681,1188.0
9.261881246,1189.0
9.288141811,1172.0
9.314402376,1258.0
9.340662941,1259.0
9.366923506,1133.0
9.393184071,1134.0
9.419444636,1128.0
9.445705201,1194.0
9.471965766,1121.0
9.498226331,1166.0
9.524486896,1188.0
9.550747461,1274.0
9.577008026,1182.0
9.603268591,1176.0
9.629529156,1173.0
9.655789721,1237.0
9.682050286,1160.0
9.708310851,1192.0
9.734571416,1225.0
9.760831981,1187.0
9.787092546,1159.0
9.813353111,1194.0
9.839613676,1211.0
9.865874241,1125.0
9.892134806,1144.0
9.918395371,1143.0
9.944655936,1114.0
9.970916501,1187.0
9.997177066,1207.0
10.023437631,1149.0
10.049698196,1100.0
10.075958761,1210.0
10.102219326,1193.0
10.128479891,1178.0
10.154740457,1212.0
10.181001022,1120.0
10.207261587,1158.0
10.233522152,1133.0
10.259782717,1212.0
10.286043282,1177.0
10.312303847,1175.0
10.338564412,1227.0
10.364824977,1163.0
10.391085542,1174.0
10.417346107,1198.0
10.443606672,1177.0
10.469867237,1162.0
10.496127802,1136.0
10.522388367,1131.0
10.548648932,1162.0
10.574909497,1113.0
10.601170062,1180.0
10.627430627,1190.0
10.653691192,1137.0
10.679951757,1127.0
10.706212322,1116.0
10.732472887,1186.0
10.758733452,1217.0
10.784994017,1183.0
10.811254582,1181.0
10.837515147,1176.0
10.863775712,1253.0
10.890036277,1193.0
10.916296842,1156.0
10.942557407,1162.0
10.968817972,1138.0
10.995078537,1221.0
11.021339102,1141.0
11.047599667,1185.0
11.073860232,1190.0
11.100120797,1166.0
11.126381362,1119.0
11.152641927,1150.0
11.178902492,1184.0
11.205163057,1190.0
11.231423622,1162.0
11.257684187,1085.0
11.283944752,1216.0
11.310205317,1138.0
11.336465882,1209.0
11.362726447,1158.0
11.388987012,1226.0
11.415247577,1177.0
11.441508142,1156.0
11.467768707,1186.0
11.494029272,1257.0
11.520289837,1230.0
11.546550402,1184.0
11.572810967,1216.0
11.599071532,1100.0
11.625332097,1167.0
11.651592662,1192.0
11.677853227,1184.0
11.704113792,1194.0
11.730374357,1208.0
11.756634922,1167.0
11.782895487,1254.0
11.809156052,1250.0
11.835416617,1175.0
11.861677182,1208.0
11.887937747,1180.0
11.914198312,1208.0
11.940458877,1219.0
11.966719442,1156.0
11.992980007,1139.0
12.019240572,1248.0
12.045501137,1163.0
12.071761702,1190.0
12.098022267,1163.0
12.124282832,1189.0
12.150543397,1243.0
12.176803962,1149.0
12.203064527,1174.0
12.229325092,1248.0
12.255585657,1180.0
12.281846222,1189.0
12.308106787,1110.0
12.334367352,1147.0
12.360627917,1199.0
12.386888482,1165.0
12.413149047,1174.0
12.439409612,1190.0
12.465670177,1176.0
12.491930742,1200.0
12.518191307,1208.0
12.544451872,1198.0
12.570712437,1205.0
12.596973002,1221.0
12.623233567,1214.0
12.649494132,1145.0
12.675754697,1187.0
12.702015262,1174.0
12.728275827,1180.0
12.754536392,1227.0
12.780796957,1201.0
12.807057522,1127.0
12.833318087,1170.0
12.859578652,1156.0
12.885839217,1228.0
12.912099782,1177.0
12.938360347,1234.0
12.964620912,1218.0
12.990881477,1248.0
13.017142042,1230.0
13.043402607,1228.0
13.069663172,1214.0
13.095923737,1239.0
13.122184302,1144.0
13.148444867,1252.0
13.174705432,1211.0
13.200965997,1179.0
13.227226562,1246.0
13.253487127,1248.0
13.279747692,1229.0
13.306008257,1232.0
13.332268822,1268.0
13.358529387,1232.0
13.384789952,1226.0
13.411050517,1263.0
13.437311082,1224.0
13.463571647,1261.0
13.489832212,1173.0
13.516092777,1210.0
13.542353343,1220.0
13.568613908,1276.0
13.594874473,1230.0
13.621135038,1221.0
13.647395603,1160.0
13.673656168,1249.0
13.699916733,1242.0
13.726177298,1256.0
13.752437863,1259.0
13.778698428,1221.0
13.804958993,1260.0
13.831219558,1249.0
13.857480123,1261.0
13.883740688,1215.0
13.910001253,1204.0
13.936261818,1209.0
13.962522383,1272.0
13.988782948,1272.0
14.015043513,1277.0
14.041304078,1238.0
14.067564643,1253.0
14.093825208,1258.0
14.120085773,1325.0
14.146346338,1199.0
14.172606903,1261.0
14.198867468,1204.0
14.225128033,1252.0
14.251388598,1256.0
14.277649163,1246.0
14.303909728,1250.0
14.330170293,1244.0
14.356430858,1272.0
14.382691423,1252.0
14.408951988,1243.0
14.435212553,1260.0
14.461473118,1207.0
14.487733683,1330.0
14.513994248,1223.0
14.540254813,1267.0
14.566515378,1242.0
14.592775943,1322.0
14.619036508,1245.0
14.645297073,1225.0
14.671557638,1235.0
14.697818203,1295.0
14.724078768,1175.0
14.750339333,1289.0
14.776599898,1258.0
14.802860463,1287.0
14.829121028,1261.0
14.855381593,1290.0
14.881642158,1282.0
14.907902723,1256.0
14.934163288,1211.0
14.960423853,1268.0
14.986684418,1256.0
15.012944983,1249.0
15.039205548,1200.0
15.065466113,1257.0
15.091726678,1213.0
15.117987243,1277.0
15.144247808,1256.0
15.170508373,1265.0
15.196768938,1198.0
15.223029503,1190.0
15.249290068,1183.0
15.275550633,1131.0
15.301811198,1105.0
15.328071763,1198.0
15.354332328,1204.0
15.380592893,1126.0
15.406853458,1076.0
15.433114023,1175.0
15.459374588,1075.0
15.485635153,1093.0
15.511895718,1058.0
15.538156283,1114.0
15.564416848,1031.0
15.590677413,1054.0
15.616937978,1090.0
15.643198543,1024.0
15.669459108,1068.0
15.695719673,1016.0
15.721980238,1064.0
15.748240803,1012.0
15.774501368,1061.0
15.800761933,987.0
15.827022498,1009.0
15.853283063,1073.0
15.879543628,1004.0
15.905804193,980.0
15.932064758,970.0
15.958325323,977.0
15.984585888,958.0
16.010846453,922.0
16.037107018,946.0
16.063367583,948.0
16.089628148,1011.0
16.115888713,935.0
16.142149278,967.0
16.168409843,995.0
16.194670408,1017.0
16.220930973,924.0
16.247191538,951.0
16.273452103,962.0
16.299712668,983.0
16.325973233,951.0
16.352233798,966.0
16.378494363,958.0
16.404754928,984.0
16.431015493,935.0
16.457276058,913.0
16.483536623,914.0
16.509797188,892.0
16.536057753,970.0
16.562318318,915.0
16.588578883,909.0
16.614839448,908.0
16.641100013,943.0
16.667360578,925.0
16.693621143,947.0
16.719881708,905.0
16.746142273,888.0
16.772402838,956.0
16.798663403,899.0
16.824923968,931.0
16.851184533,868.0
16.877445098,842.0
16.903705663,901.0
16.929966229,847.0
16.956226794,881.0
16.982487359,931.0
17.008747924,929.0
17.035008489,915.0
17.061269054,909.0
17.087529619,952.0
17.113790184,870.0
17.140050749,961.0
17.166311314,959.0
17.192571879,877.0
17.218832444,946.0
17.245093009,848.0
17.271353574,864.0
17.297614139,941.0
17.323874704,875.0
17.350135269,848.0
17.376395834,915.0
17.402656399,921.0
17.428916964,867.0
17.455177529,870.0
17.481438094,891.0
17.507698659,922.0
17.533959224,819.0
17.560219789,915.0
17.586480354,896.0
17.612740919,853.0
17.639001484,908.0
17.665262049,806.0
17.691522614,867.0
17.717783179,944.0
17.744043744,856.0
17.770304309,888.0
17.796564874,877.0
17.822825439,796.0
17.849086004,864.0
17.875346569,866.0
17.901607134,845.0
17.927867699,834.0
17.954128264,822.0
17.980388829,890.0
18.006649394,859.0
18.032909959,861.0
18.059170524,874.0
18.085431089,869.0
18.111691654,830.0
18.137952219,856.0
18.164212784,882.0
18.190473349,869.0
18.216733914,907.0
18.242994479,875.0
18.269255044,832.0
18.295515609,840.0
18.321776174,862.0
18.348036739,837.0
18.374297304,826.0
18.400557869,868.0
18.426818434,868.0
18.453078999,833.0
18.479339564,864.0
18.505600129,824.0
18.531860694,887.0
18.558121259,830.0
18.584381824,839.0
18.610642389,848.0
18.636902954,880.0
18.663163519,834.0
18.689424084,851.0
18.715684649,822.0
18.741945214,880.0
18.768205779,774.0
18.794466344,841.0
18.820726909,911.0
18.846987474,850.0
18.873248039,832.0
18.899508604,909.0
18.925769169,826.0
18.952029734,828.0
18.978290299,867.0
19.004550864,841.0
19.030811429,864.0
19.057071994,857.0
19.083332559,818.0
19.109593124,852.0
19.135853689,828.0
19.162114254,875.0
19.188374819,871.0
19.214635384,913.0
19.240895949,824.0
19.267156514,826.0
19.293417079,888.0
19.319677644,863.0
19.345938209,851.0
19.372198774,856.0
19.398459339,851.0
19.424719904,835.0
19.450980469,834.0
19.477241034,824.0
19.503501599,781.0
19.529762164,800.0
19.556022729,938.0
19.582283294,801.0
19.608543859,860.0
19.634804424,904.0
19.661064989,857.0
19.687325554,854.0
19.713586119,795.0
19.739846684,801.0
19.766107249,839.0
19.792367814,789.0
19.818628379,857.0
19.844888944,883.0
19.871149509,869.0
19.897410074,823.0
19.923670639,810.0
19.949931204,806.0
19.976191769,833.0
20.002452334,812.0
20.028712899,859.0
20.054973464,856.0
20.081234029,856.0
20.107494594,849.0
20.133755159,857.0
20.160015724,832.0
20.186276289,842.0
20.212536854,839.0
20.238797419,811.0
20.265057984,816.0
20.291318549,828.0
20.317579114,881.0
20.343839680,872.0
20.370100245,879.0
20.396360810,879.0
20.422621375,828.0
20.448881940,896.0
20.475142505,895.0
20.501403070,832.0
20.527663635,910.0
20.553924200,848.0
20.580184765,828.0
20.606445330,864.0
20.632705895,830.0
20.658966460,882.0
20.685227025,870.0
20.711487590,856.0
20.737748155,886.0
20.764008720,874.0
20.790269285,894.0
20.816529850,801.0
20.842790415,823.0
20.869050980,910.0
20.895311545,868.0
20.921572110,840.0
20.947832675,818.0
20.974093240,857.0
21.000353805,871.0
21.026614370,920.0
21.052874935,870.0
21.079135500,826.0
21.105396065,876.0
21.131656630,883.0
21.157917195,845.0
21.184177760,870.0
21.210438325,872.0
21.236698890,807.0
21.262959455,841.0
21.289220020,892.0
21.315480585,836.0
21.341741150,888.0
21.368001715,858.0
21.394262280,811.0
21.420522845,877.0
21.446783410,901.0
21.473043975,842.0
21.499304540,860.0
21.525565105,860.0
21.551825670,822.0
21.578086235,814.0
21.604346800,833.0
21.630607365,821.0
21.656867930,865.0
21.683128495,883.0
21.709389060,891.0
21.735649625,875.0
21.761910190,911.0
21.788170755,848.0
21.814431320,860.0
21.840691885,825.0
21.866952450,907.0
21.893213015,955.0
21.919473580,908.0
21.945734145,851.0
21.971994710,868.0
21.998255275,848.0
22.024515840,860.0
22.050776405,843.0
22.077036970,871.0
22.103297535,902.0
22.129558100,945.0
22.155818665,873.0
22.182079230,887.0
22.208339795,891.0
22.234600360,868.0
22.260860925,835.0
22.287121490,868.0
22.313382055,910.0
22.339642620,869.0
22.365903185,878.0
22.392163750,903.0
22.418424315,857.0
22.444684880,864.0
22.470945445,835.0
22.497206010,855.0
22.523466575,882.0
22.549727140,906.0
22.575987705,903.0
22.602248270,899.0
22.628508835,883.0
22.654769400,851.0
22.681029965,876.0
22.707290530,900.0
22.733551095,841.0
22.759811660,842.0
22.786072225,895.0
22.812332790,883.0
22.838593355,893.0
22.864853920,879.0
22.891114485,870.0
22.917375050,882.0
22.943635615,851.0
22.969896180,847.0
22.996156745,831.0
23.022417310,868.0
23.048677875,880.0
23.074938440,904.0
23.101199005,851.0
23.127459570,862.0
23.153720135,879.0
23.179980700,845.0
23.206241265,904.0
23.232501830,865.0
23.258762395,840.0
23.285022960,907.0
23.311283525,871.0
23.337544090,857.0
23.363804655,890.0
23.390065220,921.0
23.416325785,927.0
23.442586350,885.0
23.468846915,938.0
23.495107480,904.0
23.521368045,920.0
23.547628610,900.0
23.573889175,885.0
23.600149740,924.0
23.626410305,858.0
23.652670870,925.0
23.678931435,894.0
23.705192000,918.0
23.731452566,901.0
23.757713131,918.0
23.783973696,914.0
23.810234261,930.0
23.836494826,880.0
23.862755391,919.0
23.889015956,953.0
23.915276521,916.0
23.941537086,896.0
23.967797651,889.0
23.994058216,803.0
24.020318781,932.0
24.046579346,870.0
24.072839911,883.0
24.099100476,955.0
24.125361041,943.0
24.151621606,880.0
24.177882171,944.0
24.204142736,867.0
24.230403301,899.0
24.256663866,873.0
24.282924431,926.0
24.309184996,980.0
24.335445561,905.0
24.361706126,965.0
24.387966691,911.0
24.414227256,868.0
24.440487821,945.0
24.466748386,843.0
24.493008951,909.0
24.519269516,945.0
24.545530081,921.0
24.571790646,932.0
24.598051211,925.0
24.624311776,910.0
24.650572341,884.0
24.676832906,854.0
24.703093471,846.0
24.729354036,955.0
24.755614601,908.0
24.781875166,925.0
24.808135731,933.0
24.834396296,839.0
24.860656861,910.0
24.886917426,911.0
24.913177991,893.0
24.939438556,953.0
24.965699121,867.0
24.991959686,915.0
25.018220251,951.0
25.044480816,899.0
25.070741381,889.0
25.097001946,893.0
25.123262511,890.0
25.149523076,930.0
25.175783641,851.0
25.202044206,942.0
25.228304771,929.0
25.254565336,896.0
25.280825901,866.0
25.307086466,888.0
25.333347031,928.0
25.359607596,836.0
25.385868161,962.0
25.412128726,970.0
25.438389291,968.0
25.464649856,889.0
25.490910421,936.0
25.517170986,867.0
25.543431551,908.0
25.569692116,899.0
25.595952681,858.0
25.622213246,904.0
25.648473811,918.0
25.674734376,910.0
25.700994941,937.0
25.727255506,880.0
25.753516071,912.0
25.779776636,971.0
25.806037201,949.0
25.832297766,849.0
25.858558331,869.0
25.884818896,902.0
25.911079461,869.0
25.937340026,882.0
25.963600591,917.0
25.989861156,903.0
26.016121721,946.0
26.042382286,917.0
26.068642851,885.0
26.094903416,917.0
26.121163981,930.0
26.147424546,892.0
26.173685111,928.0
26.199945676,867.0
26.226206241,897.0
26.252466806,895.0
26.278727371,903.0
26.304987936,952.0
26.331248501,887.0
26.357509066,897.0
26.383769631,925.0
26.410030196,900.0
26.436290761,877.0
26.462551326,934.0
26.488811891,958.0
26.515072456,961.0
26.541333021,894.0
26.567593586,919.0
26.593854151,875.0
26.620114716,902.0
26.646375281,941.0
26.672635846,897.0
26.698896411,901.0
26.725156976,900.0
26.751417541,917.0
26.777678106,880.0
26.803938671,889.0
26.830199236,907.0
26.856459801,914.0
26.882720366,846.0
26.908980931,907.0
26.935241496,947.0
26.961502061,880.0
26.987762626,898.0
27.014023191,881.0
27.040283756,914.0
27.066544321,925.0
27.092804886,867.0
27.119065451,903.0
27.145326017,927.0
27.171586582,925.0
27.197847147,903.0
27.224107712,900.0
27.250368277,963.0
27.276628842,866.0
27.302889407,924.0
27.329149972,926.0
27.355410537,864.0
27.381671102,969.0
27.407931667,901.0
27.434192232,902.0
27.460452797,881.0
27.486713362,908.0
27.512973927,886.0
27.539234492,876.0
27.565495057,914.0
27.591755622,880.0
27.618016187,857.0
27.644276752,879.0
27.670537317,931.0
27.696797882,883.0
27.723058447,934.0
27.749319012,906.0
27.775579577,886.0
27.801840142,941.0
27.828100707,960.0
27.854361272,902.0
27.880621837,920.0
27.906882402,931.0
27.933142967,896.0
27.959403532,878.0
27.985664097,869.0
28.011924662,971.0
28.038185227,860.0
28.064445792,915.0
28.090706357,940.0
28.116966922,836.0
28.143227487,881.0
28.169488052,929.0
28.195748617,938.0
28.222009182,866.0
28.248269747,969.0
28.274530312,898.0
28.300790877,910.0
28.327051442,888.0
28.353312007,933.0
28.379572572,918.0
28.405833137,906.0
28.432093702,941.0
28.458354267,962.0
28.484614832,937.0
28.510875397,948.0
28.537135962,916.0
28.563396527,884.0
28.589657092,917.0
28.615917657,1016.0
28.642178222,970.0
28.668438787,926.0
28.694699352,945.0
28.720959917,947.0
28.747220482,921.0
28.773481047,927.0
28.799741612,977.0
28.826002177,912.0
28.852262742,941.0
28.878523307,917.0
28.904783872,937.0
28.931044437,912.0
28.957305002,855.0
28.983565567,891.0
29.009826132,867.0
29.036086697,876.0
29.062347262,940.0
29.088607827,896.0
29.114868392,895.0
29.141128957,899.0
29.167389522,875.0
29.193650087,894.0
29.219910652,881.0
29.246171217,834.0
29.272431782,925.0
29.298692347,843.0
29.324952912,872.0
29.351213477,895.0
29.377474042,916.0
29.403734607,936.0
29.429995172,881.0
29.456255737,884.0
29.482516302,838.0
29.508776867,827.0
29.535037432,806.0
29.561297997,846.0
29.587558562,807.0
29.613819127,947.0
29.640079692,860.0
29.666340257,893.0
29.692600822,868.0
29.718861387,870.0
29.745121952,885.0
29.771382517,862.0
29.797643082,865.0
29.823903647,896.0
29.850164212,862.0
29.876424777,850.0
29.902685342,865.0
29.928945907,876.0
29.955206472,920.0
29.981467037,862.0
30.007727602,938.0
30.033988167,838.0
30.060248732,850.0
30.086509297,852.0
30.112769862,892.0
30.139030427,893.0
30.165290992,875.0
30.191551557,833.0
30.217812122,848.0
30.244072687,869.0
30.270333252,870.0
30.296593817,902.0
30.322854382,849.0
30.349114947,889.0
30.375375512,835.0
30.401636077,801.0
30.427896642,870.0
30.454157207,835.0
30.480417772,857.0
30.506678337,864.0
30.532938903,828.0
30.559199468,869.0
30.585460033,861.0
30.611720598,782.0
30.637981163,862.0
30.664241728,847.0
30.690502293,815.0
30.716762858,879.0
30.743023423,876.0
30.769283988,805.0
30.795544553,774.0
30.821805118,871.0
30.848065683,823.0
30.874326248,849.0
30.900586813,838.0
30.926847378,878.0
30.953107943,829.0
30.979368508,842.0
31.005629073,790.0
31.031889638,858.0
31.058150203,798.0
31.084410768,826.0
31.110671333,873.0
31.136931898,861.0
31.163192463,799.0
31.189453028,881.0
31.215713593,887.0
31.241974158,819.0
31.268234723,848.0
31.294495288,774.0
31.320755853,806.0
31.347016418,856.0
31.373276983,844.0
31.399537548,814.0
31.425798113,816.0
31.452058678,832.0
31.478319243,846.0
31.504579808,828.0
31.530840373,834.0
31.557100938,839.0
31.583361503,807.0
31.609622068,793.0
31.635882633,835.0
31.662143198,832.0
31.688403763,796.0
31.714664328,805.0
31.740924893,834.0
31.767185458,741.0
31.793446023,825.0
31.819706588,813.0
31.845967153,768.0
31.872227718,790.0
31.898488283,752.0
31.924748848,773.0
31.951009413,789.0
31.977269978,844.0
32.003530543,820.0
32.029791108,793.0
32.056051673,818.0
32.082312238,796.0
32.108572803,797.0
32.134833368,741.0
32.161093933,774.0
32.187354498,775.0
32.213615063,793.0
32.239875628,811.0
32.266136193,780.0
32.292396758,857.0
32.318657323,845.0
32.344917888,817.0
32.371178453,825.0
32.397439018,789.0
32.423699583,783.0
32.449960148,791.0
32.476220713,785.0
32.502481278,831.0
32.528741843,795.0
32.555002408,751.0
32.581262973,772.0
32.607523538,789.0
32.633784103,783.0
32.660044668,790.0
32.686305233,783.0
32.712565798,704.0
32.738826363,777.0
32.765086928,755.0
32.791347493,831.0
32.817608058,742.0
32.843868623,770.0
32.870129188,757.0
32.896389753,791.0
32.922650318,815.0
32.948910883,729.0
32.975171448,764.0
33.001432013,838.0
33.027692578,796.0
33.053953143,748.0
33.080213708,748.0
33.106474273,780.0
33.132734838,804.0
33.158995403,749.0
33.185255968,719.0
33.211516533,776.0
33.237777098,802.0
33.264037663,741.0
33.290298228,740.0
33.316558793,782.0
33.342819358,692.0
33.369079923,744.0
33.395340488,750.0
33.421601053,779.0
33.447861618,766.0
33.474122183,819.0
33.500382748,756.0
33.526643313,760.0
33.552903878,728.0
33.579164443,734.0
33.605425008,788.0
33.631685573,719.0
33.657946138,799.0
33.684206703,773.0
33.710467268,779.0
33.736727833,736.0
33.762988398,778.0
33.789248963,757.0
33.815509528,744.0
33.841770093,772.0
33.868030658,735.0
33.894291223,707.0
33.920551789,752.0
33.946812354,760.0
33.973072919,797.0
33.999333484,735.0
34.025594049,770.0
34.051854614,738.0
34.078115179,707.0
34.104375744,758.0
34.130636309,729.0
34.156896874,733.0
34.183157439,719.0
34.209418004,705.0
34.235678569,723.0
34.261939134,728.0
34.288199699,748.0
34.314460264,714.0
34.340720829,742.0
34.366981394,782.0
34.393241959,787.0
34.419502524,777.0
34.445763089,748.0
34.472023654,755.0
34.498284219,735.0
34.524544784,754.0
34.550805349,779.0
34.577065914,713.0
34.603326479,697.0
34.629587044,751.0
34.655847609,701.0
34.682108174,711.0
34.708368739,687.0
34.734629304,692.0
34.760889869,740.0
34.787150434,687.0
34.813410999,750.0
34.839671564,713.0
34.865932129,730.0
34.892192694,805.0
34.918453259,764.0
34.944713824,781.0
34.970974389,721.0
34.997234954,751.0
35.023495519,742.0
35.049756084,717.0
35.076016649,672.0
35.102277214,720.0
35.128537779,788.0
35.154798344,721.0
35.181058909,731.0
35.207319474,788.0
35.233580039,719.0
35.259840604,752.0
35.286101169,758.0
35.312361734,744.0
35.338622299,715.0
35.364882864,684.0
35.391143429,729.0
35.417403994,765.0
35.443664559,763.0
35.469925124,695.0
35.496185689,735.0
35.522446254,719.0
35.548706819,730.0
35.574967384,708.0
35.601227949,720.0
35.627488514,681.0
35.653749079,701.0
35.680009644,743.0
35.706270209,738.0
35.732530774,730.0
35.758791339,711.0
35.785051904,750.0
35.811312469,711.0
35.837573034,734.0
35.863833599,721.0
35.890094164,691.0
35.916354729,734.0
35.942615294,749.0
35.968875859,684.0
35.995136424,744.0
36.021396989,753.0
36.047657554,702.0
36.073918119,757.0
36.100178684,723.0
36.126439249,751.0
36.152699814,733.0
36.178960379,724.0
36.205220944,697.0
36.231481509,708.0
36.257742074,736.0
36.284002639,725.0
36.310263204,698.0
36.336523769,703.0
36.362784334,729.0
36.389044899,710.0
36.415305464,727.0
36.441566029,767.0
36.467826594,657.0
36.494087159,708.0
36.520347724,749.0
36.546608289,738.0
36.572868854,719.0
36.599129419,715.0
36.625389984,748.0
36.651650549,711.0
36.677911114,713.0
36.704171679,677.0
36.730432244,715.0
36.756692809,761.0
36.782953374,733.0
36.809213939,743.0
36.835474504,726.0
36.861735069,660.0
36.887995634,691.0
36.914256199,731.0
36.940516764,759.0
36.966777329,725.0
36.993037894,659.0
37.019298459,695.0
37.045559024,710.0
37.071819589,742.0
37.098080154,751.0
37.124340719,742.0
37.150601284,674.0
37.176861849,745.0
37.203122414,747.0
37.229382979,746.0
37.255643544,762.0
37.281904109,745.0
37.308164674,730.0
37.334425240,709.0
37.360685805,745.0
37.386946370,743.0
37.413206935,750.0
37.439467500,713.0
37.465728065,765.0
37.491988630,705.0
37.518249195,741.0
37.544509760,735.0
37.570770325,729.0
37.597030890,701.0
37.623291455,711.0
37.649552020,712.0
37.675812585,726.0
37.702073150,692.0
37.728333715,707.0
37.754594280,663.0
37.780854845,743.0
37.807115410,676.0
37.833375975,741.0
37.859636540,774.0
37.885897105,724.0
37.912157670,728.0
37.938418235,721.0
37.964678800,726.0
37.990939365,705.0
38.017199930,736.0
38.043460495,728.0
38.069721060,725.0
38.095981625,753.0
38.122242190,708.0
38.148502755,723.0
38.174763320,786.0
38.201023885,775.0
38.227284450,751.0
38.253545015,792.0
38.279805580,693.0
38.306066145,768.0
38.332326710,785.0
38.358587275,783.0
38.384847840,731.0
38.411108405,738.0
38.437368970,741.0
38.463629535,781.0
38.489890100,749.0
38.516150665,749.0
38.542411230,820.0
38.568671795,728.0
38.594932360,737.0
38.621192925,796.0
38.647453490,843.0
38.673714055,790.0
38.699974620,740.0
38.726235185,778.0
38.752495750,775.0
38.778756315,792.0
38.805016880,787.0
38.831277445,828.0
38.857538010,788.0
38.883798575,791.0
38.910059140,798.0
38.936319705,775.0
38.962580270,825.0
38.988840835,778.0
39.015101400,856.0
39.041361965,815.0
39.067622530,821.0
39.093883095,808.0
39.120143660,837.0
39.146404225,804.0
39.172664790,889.0
39.198925355,838.0
39.225185920,800.0
39.251446485,789.0
39.277707050,846.0
39.303967615,884.0
39.330228180,849.0
39.356488745,828.0
39.382749310,808.0
39.409009875,869.0
39.435270440,856.0
39.461531005,851.0
39.487791570,841.0
39.514052135,799.0
39.540312700,833.0
39.566573265,880.0
39.592833830,855.0
39.619094395,878.0
39.645354960,891.0
39.671615525,914.0
39.697876090,942.0
39.724136655,911.0
39.750397220,898.0
39.776657785,932.0
39.802918350,980.0
39.829178915,961.0
39.855439480,982.0
39.881700045,1029.0
39.907960610,997.0
39.934221175,1076.0
39.960481740,1039.0
39.986742305,1003.0
40.013002870,993.0
40.039263435,1006.0
40.065524000,1006.0
40.091784565,1025.0
40.118045130,1130.0
40.144305695,1050.0
40.170566260,1155.0
40.196826825,1170.0
40.223087390,1189.0
40.249347955,1202.0
40.275608520,1261.0
40.301869085,1221.0
40.328129650,1209.0
40.354390215,1208.0
40.380650780,1189.0
40.406911345,1235.0
40.433171910,1261.0
40.459432475,1259.0
40.485693040,1296.0
40.511953605,1266.0
40.538214170,1313.0
40.564474735,1251.0
40.590735300,1381.0
40.616995865,1256.0
40.643256430,1266.0
40.669516995,1275.0
40.695777560,1306.0
40.722038126,1312.0
40.748298691,1219.0
40.774559256,1329.0
40.800819821,1293.0
40.827080386,1275.0
40.853340951,1276.0
40.879601516,1284.0
40.905862081,1307.0
40.932122646,1268.0
40.958383211,1274.0
40.984643776,1243.0
41.010904341,1260.0
41.037164906,1304.0
41.063425471,1272.0
41.089686036,1270.0
41.115946601,1238.0
41.142207166,1227.0
41.168467731,1246.0
41.194728296,1305.0
41.220988861,1276.0
41.247249426,1282.0
41.273509991,1280.0
41.299770556,1231.0
41.326031121,1256.0
41.352291686,1248.0
41.378552251,1274.0
41.404812816,1168.0
41.431073381,1209.0
41.457333946,1212.0
41.483594511,1197.0
41.509855076,1202.0
41.536115641,1195.0
41.562376206,1122.0
41.588636771,1217.0
41.614897336,1250.0
41.641157901,1220.0
41.667418466,1199.0
41.693679031,1148.0
41.719939596,1198.0
41.746200161,1200.0
41.772460726,1278.0
41.798721291,1206.0
41.824981856,1215.0
41.851242421,1198.0
41.877502986,1115.0
41.903763551,1130.0
41.930024116,1180.0
41.956284681,1198.0
41.982545246,1188.0
42.008805811,1204.0
42.035066376,1085.0
42.061326941,1169.0
42.087587506,1153.0
42.113848071,1208.0
42.140108636,1209.0
42.166369201,1158.0
42.192629766,1178.0
42.218890331,1137.0
42.245150896,1098.0
42.271411461,1096.0
42.297672026,1130.0
42.323932591,1107.0
42.350193156,1156.0
42.376453721,1134.0
42.402714286,1063.0
42.428974851,1085.0
42.455235416,1073.0
42.481495981,1103.0
42.507756546,1079.0
42.534017111,1151.0
42.560277676,1015.0
42.586538241,1112.0
42.612798806,1129.0
42.639059371,1055.0
42.665319936,1086.0
42.691580501,1101.0
42.717841066,1069.0
42.744101631,1124.0
42.770362196,968.0
42.796622761,1071.0
42.822883326,1058.0
42.849143891,1064.0
42.875404456,1085.0
42.901665021,1064.0
42.927925586,1051.0
42.954186151,1061.0
42.980446716,1026.0
43.006707281,1019.0
43.032967846,1007.0
43.059228411,1025.0
43.085488976,986.0
43.111749541,1054.0
43.138010106,964.0
43.164270671,1013.0
43.190531236,1026.0
43.216791801,1014.0
43.243052366,929.0
43.269312931,1051.0
43.295573496,977.0
43.321834061,1012.0
43.348094626,997.0
43.374355191,992.0
43.400615756,994.0
43.426876321,960.0
43.453136886,995.0
43.479397451,977.0
43.505658016,932.0
43.531918581,978.0
43.558179146,970.0
43.584439711,1003.0
43.610700276,1011.0
43.636960841,969.0
43.663221406,996.0
43.689481971,973.0
43.715742536,972.0
43.742003101,974.0
43.768263666,957.0
43.794524231,946.0
43.820784796,951.0
43.847045361,922.0
43.873305926,891.0
43.899566491,845.0
43.925827056,931.0
43.952087621,896.0
43.978348186,946.0
44.004608751,891.0
44.030869316,966.0
44.057129881,885.0
44.083390446,899.0
44.109651011,896.0
44.135911577,873.0
44.162172142,912.0
44.188432707,912.0
44.214693272,858.0
44.240953837,918.0
44.267214402,930.0
44.293474967,876.0
44.319735532,850.0
44.345996097,885.0
44.372256662,876.0
44.398517227,818.0
44.424777792,903.0
44.451038357,862.0
44.477298922,863.0
44.503559487,834.0
44.529820052,842.0
44.556080617,882.0
44.582341182,811.0
44.608601747,892.0
44.634862312,841.0
44.661122877,884.0
44.687383442,830.0
44.713644007,827.0
44.739904572,846.0
44.766165137,820.0
44.792425702,818.0
44.818686267,873.0
44.844946832,796.0
44.871207397,789.0
44.897467962,793.0
44.923728527,810.0
44.949989092,870.0
44.976249657,798.0
45.002510222,846.0
45.028770787,800.0
45.055031352,809.0
45.081291917,794.0
45.107552482,801.0
45.133813047,835.0
45.160073612,789.0
45.186334177,791.0
45.212594742,815.0
45.238855307,751.0
45.265115872,730.0
45.291376437,751.0
45.317637002,817.0
45.343897567,844.0
45.370158132,727.0
45.396418697,806.0
45.422679262,778.0
45.448939827,799.0
45.475200392,768.0
45.501460957,813.0
45.527721522,783.0
45.553982087,771.0
45.580242652,778.0
45.606503217,774.0
45.632763782,794.0
45.659024347,751.0
45.685284912,773.0
45.711545477,764.0
45.737806042,760.0
45.764066607,772.0
45.790327172,830.0
45.816587737,801.0
45.842848302,769.0
45.869108867,722.0
45.895369432,754.0
45.921629997,767.0
45.947890562,747.0
45.974151127,743.0
46.000411692,760.0
46.026672257,732.0
46.052932822,769.0
46.079193387,759.0
46.105453952,742.0
46.131714517,745.0
46.157975082,732.0
46.184235647,736.0
46.210496212,735.0
46.236756777,759.0
46.263017342,775.0
46.289277907,727.0
46.315538472,700.0
46.341799037,716.0
46.368059602,765.0
46.394320167,658.0
46.420580732,708.0
46.446841297,749.0
46.473101862,688.0
46.499362427,712.0
46.525622992,721.0
46.551883557,684.0
46.578144122,765.0
46.604404687,697.0
46.630665252,737.0
46.656925817,751.0
46.683186382,726.0
46.709446947,717.0
46.735707512,737.0
46.761968077,659.0
46.788228642,661.0
46.814489207,730.0
46.840749772,691.0
46.867010337,656.0
46.893270902,745.0
46.919531467,666.0
46.945792032,742.0
46.972052597,656.0
46.998313162,703.0
47.024573727,697.0
47.050834292,678.0
47.077094857,659.0
47.103355422,729.0
47.129615987,711.0
47.155876552,633.0
47.182137117,671.0
47.208397682,704.0
47.234658247,679.0
47.260918812,673.0
47.287179377,723.0
47.313439942,698.0
47.339700507,689.0
47.365961072,664.0
47.392221637,659.0
47.418482202,741.0
47.444742767,704.0
47.471003332,681.0
47.497263897,640.0
47.523524463,633.0
47.549785028,619.0
47.576045593,700.0
47.602306158,680.0
47.628566723,684.0
47.654827288,675.0
47.681087853,656.0
47.707348418,665.0
47.733608983,662.0
47.759869548,688.0
47.786130113,621.0
47.812390678,629.0
47.838651243,670.0
47.864911808,659.0
47.891172373,642.0
47.917432938,592.0
47.943693503,672.0
47.969954068,624.0
47.996214633,605.0
48.022475198,647.0
48.048735763,657.0
48.074996328,629.0
48.101256893,652.0
48.127517458,619.0
48.153778023,646.0
48.180038588,681.0
48.206299153,664.0
48.232559718,668.0
48.258820283,669.0
48.285080848,620.0
48.311341413,623.0
48.337601978,657.0
48.363862543,606.0
48.390123108,610.0
48.416383673,617.0
48.442644238,594.0
48.468904803,628.0
48.495165368,590.0
48.521425933,606.0
48.547686498,608.0
48.573947063,623.0
48.600207628,601.0
48.626468193,612.0
48.652728758,573.0
48.678989323,621.0
48.705249888,641.0
48.731510453,573.0
48.757771018,674.0
48.784031583,642.0
48.810292148,628.0
48.836552713,612.0
48.862813278,637.0
48.889073843,637.0
48.915334408,578.0
48.941594973,618.0
48.967855538,635.0
48.994116103,629.0
49.020376668,634.0
49.046637233,628.0
49.072897798,594.0
49.099158363,622.0
49.125418928,619.0
49.151679493,600.0
49.177940058,639.0
49.204200623,636.0
49.230461188,592.0
49.256721753,626.0
49.282982318,642.0
49.309242883,619.0
49.335503448,607.0
49.361764013,602.0
49.388024578,614.0
49.414285143,630.0
49.440545708,614.0
49.466806273,613.0
49.493066838,652.0
49.519327403,629.0
49.545587968,594.0
49.571848533,665.0
49.598109098,599.0
49.624369663,617.0
49.650630228,598.0
49.676890793,666.0
49.703151358,575.0
49.729411923,605.0
49.755672488,598.0
49.781933053,578.0
49.808193618,558.0
49.834454183,605.0
49.860714748,609.0
49.886975313,554.0
49.913235878,675.0
49.939496443,554.0
49.965757008,632.0
49.992017573,550.0
50.018278138,599.0
50.044538703,618.0
50.070799268,580.0
50.097059833,586.0
50.123320398,578.0
50.149580963,582.0
50.175841528,567.0
50.202102093,598.0
50.228362658,623.0
50.254623223,592.0
50.280883788,616.0
50.307144353,646.0
50.333404918,574.0
50.359665483,585.0
50.385926048,563.0
50.412186613,544.0
50.438447178,572.0
50.464707743,551.0
50.490968308,568.0
50.517228873,617.0
50.543489438,606.0
50.569750003,549.0
50.596010568,589.0
50.622271133,541.0
50.648531698,567.0
50.674792263,585.0
50.701052828,586.0
50.727313393,551.0
50.753573958,586.0
50.779834523,565.0
50.806095088,564.0
50.832355653,586.0
50.858616218,595.0
50.884876783,601.0
50.911137349,561.0
50.937397914,602.0
50.963658479,622.0
50.989919044,565.0
51.016179609,589.0
51.042440174,582.0
51.068700739,544.0
51.094961304,565.0
51.121221869,523.0
51.147482434,549.0
51.173742999,581.0
51.200003564,580.0
51.226264129,552.0
51.252524694,559.0
51.278785259,563.0
51.305045824,570.0
51.331306389,528.0
51.357566954,561.0
51.383827519,526.0
51.410088084,521.0
51.436348649,613.0
51.462609214,599.0
51.488869779,611.0
51.515130344,563.0
51.541390909,538.0
51.567651474,552.0
51.593912039,564.0
51.620172604,529.0
51.646433169,534.0
51.672693734,594.0
51.698954299,586.0
51.725214864,622.0
51.751475429,523.0
51.777735994,576.0
51.803996559,555.0
51.830257124,544.0
51.856517689,556.0
51.882778254,601.0
51.909038819,592.0
51.935299384,576.0
51.961559949,543.0
51.987820514,528.0
52.014081079,549.0
52.040341644,544.0
52.066602209,587.0
52.092862774,555.0
52.119123339,576.0
52.145383904,566.0
52.171644469,536.0
52.197905034,526.0
52.224165599,550.0
52.250426164,562.0
52.276686729,539.0
52.302947294,534.0
52.329207859,558.0
52.355468424,521.0
52.381728989,611.0
52.407989554,551.0
52.434250119,538.0
52.460510684,593.0
52.486771249,583.0
52.513031814,491.0
52.539292379,572.0
52.565552944,536.0
52.591813509,538.0
52.618074074,517.0
52.644334639,583.0
52.670595204,552.0
52.696855769,556.0
52.723116334,559.0
52.749376899,519.0
52.775637464,562.0
52.801898029,554.0
52.828158594,532.0
52.854419159,514.0
52.880679724,553.0
52.906940289,575.0
52.933200854,589.0
52.959461419,540.0
52.985721984,557.0
53.011982549,566.0
53.038243114,569.0
53.064503679,587.0
53.090764244,543.0
53.117024809,525.0
53.143285374,513.0
53.169545939,604.0
53.195806504,574.0
53.222067069,539.0
53.248327634,541.0
53.274588199,557.0
53.300848764,546.0
53.327109329,591.0
53.353369894,525.0
53.379630459,546.0
53.405891024,532.0
53.432151589,518.0
53.458412154,535.0
53.484672719,544.0
53.510933284,552.0
53.537193849,545.0
53.563454414,531.0
53.589714979,555.0
53.615975544,551.0
53.642236109,532.0
53.668496674,520.0
53.694757239,580.0
53.721017804,560.0
53.747278369,531.0
53.773538934,519.0
53.799799499,562.0
53.826060064,540.0
53.852320629,553.0
53.878581194,566.0
53.904841759,560.0
53.931102324,509.0
53.957362889,521.0
53.983623454,576.0
54.009884019,498.0
54.036144584,599.0
54.062405149,528.0
54.088665714,550.0
54.114926279,547.0
54.141186844,531.0
54.167447409,539.0
54.193707974,547.0
54.219968539,590.0
54.246229104,539.0
54.272489669,546.0
54.298750234,549.0
54.325010800,551.0
54.351271365,551.0
54.377531930,572.0
54.403792495,551.0
54.430053060,571.0
54.456313625,552.0
54.482574190,555.0
54.508834755,556.0
54.535095320,533.0
54.561355885,538.0
54.587616450,538.0
54.613877015,541.0
54.640137580,526.0
54.666398145,577.0
54.692658710,553.0
54.718919275,584.0
54.745179840,578.0
54.771440405,494.0
54.797700970,523.0
54.823961535,581.0
54.850222100,517.0
54.876482665,593.0
54.902743230,533.0
54.929003795,508.0
54.955264360,557.0
54.981524925,543.0
55.007785490,532.0
55.034046055,579.0
55.060306620,518.0
55.086567185,537.0
55.112827750,543.0
55.139088315,601.0
55.165348880,559.0
55.191609445,526.0
55.217870010,563.0
55.244130575,540.0
55.270391140,509.0
55.296651705,532.0
55.322912270,563.0
55.349172835,504.0
55.375433400,563.0
55.401693965,530.0
55.427954530,567.0
55.454215095,560.0
55.480475660,494.0
55.506736225,561.0
55.532996790,527.0
55.559257355,546.0
55.585517920,541.0
55.611778485,549.0
55.638039050,522.0
55.664299615,543.0
55.690560180,527.0
55.716820745,568.0
55.743081310,538.0
55.769341875,522.0
55.795602440,508.0
55.821863005,552.0
55.848123570,533.0
55.874384135,484.0
55.900644700,548.0
55.926905265,572.0
55.953165830,531.0
55.979426395,519.0
56.005686960,526.0
56.031947525,527.0
56.058208090,513.0
56.084468655,488.0
56.110729220,549.0
56.136989785,561.0
56.163250350,536.0
56.189510915,510.0
56.215771480,528.0
56.242032045,499.0
56.268292610,531.0
56.294553175,544.0
56.320813740,509.0
56.347074305,498.0
56.373334870,518.0
56.399595435,508.0
56.425856000,527.0
56.452116565,491.0
56.478377130,525.0
56.504637695,505.0
56.530898260,563.0
56.557158825,524.0
56.583419390,515.0
56.609679955,557.0
56.635940520,527.0
56.662201085,559.0
56.688461650,547.0
56.714722215,557.0
56.740982780,559.0
56.767243345,522.0
56.793503910,505.0
56.819764475,503.0
56.846025040,560.0
56.872285605,530.0
56.898546170,548.0
56.924806735,504.0
56.951067300,505.0
56.977327865,553.0
57.003588430,546.0
57.029848995,549.0
57.056109560,505.0
57.082370125,525.0
57.108630690,491.0
57.134891255,508.0
57.161151820,469.0
57.187412385,502.0
57.213672950,508.0
57.239933515,523.0
57.266194080,512.0
57.292454645,513.0
57.318715210,514.0
57.344975775,514.0
57.371236340,516.0
57.397496905,552.0
57.423757470,552.0
57.450018035,495.0
57.476278600,518.0
57.502539165,504.0
57.528799730,523.0
57.555060295,501.0
57.581320860,522.0
57.607581425,498.0
57.633841990,531.0
57.660102555,499.0
57.686363120,495.0
57.712623686,476.0
57.738884251,490.0
57.765144816,530.0
57.791405381,527.0
57.817665946,527.0
57.843926511,516.0
57.870187076,519.0
57.896447641,526.0
57.922708206,500.0
57.948968771,494.0
57.975229336,545.0
58.001489901,529.0
58.027750466,543.0
58.054011031,555.0
58.080271596,545.0
58.106532161,520.0
58.132792726,496.0
58.159053291,528.0
58.185313856,509.0
58.211574421,551.0
58.237834986,492.0
58.264095551,526.0
58.290356116,516.0
58.316616681,527.0
58.342877246,525.0
58.369137811,513.0
58.395398376,469.0
58.421658941,531.0
58.447919506,512.0
58.474180071,490.0
58.500440636,526.0
58.526701201,566.0
58.552961766,516.0
58.579222331,530.0
58.605482896,528.0
58.631743461,524.0
58.658004026,577.0
58.684264591,484.0
58.710525156,499.0
58.736785721,493.0
58.763046286,527.0
58.789306851,529.0
58.815567416,537.0
58.841827981,543.0
58.868088546,491.0
58.894349111,548.0
58.920609676,532.0
58.946870241,522.0
58.973130806,493.0
58.999391371,492.0
59.025651936,516.0
59.051912501,544.0
59.078173066,510.0
59.104433631,525.0
59.130694196,473.0
59.156954761,503.0
59.183215326,507.0
59.209475891,490.0
59.235736456,488.0
59.261997021,524.0
59.288257586,517.0
59.314518151,483.0
59.340778716,483.0
59.367039281,518.0
59.393299846,501.0
59.419560411,495.0
59.445820976,549.0
59.472081541,504.0
59.498342106,528.0
59.524602671,507.0
59.550863236,503.0
59.577123801,533.0
59.603384366,503.0
59.629644931,534.0
59.655905496,503.0
59.682166061,502.0
59.708426626,559.0
59.734687191,509.0
59.760947756,477.0
59.787208321,501.0
59.813468886,504.0
59.839729451,546.0
59.865990016,504.0
59.892250581,499.0
59.918511146,502.0
59.944771711,533.0
59.971032276,549.0
59.997292841,527.0
60.023553406,482.0
60.049813971,560.0
60.076074536,539.0
60.102335101,511.0
60.128595666,499.0
60.154856231,509.0
60.181116796,488.0
60.207377361,527.0
60.233637926,499.0
60.259898491,509.0
60.286159056,492.0
60.312419621,485.0
60.338680186,487.0
60.364940751,517.0
60.391201316,524.0
60.417461881,504.0
60.443722446,526.0
60.469983011,528.0
60.496243576,497.0
60.522504141,486.0
60.548764706,493.0
60.575025271,511.0
60.601285836,489.0
60.627546401,468.0
60.653806966,562.0
60.680067531,545.0
60.706328096,493.0
60.732588661,478.0
60.758849226,524.0
60.785109791,560.0
60.811370356,516.0
60.837630921,511.0
60.863891486,543.0
60.890152051,461.0
60.916412616,509.0
60.942673181,501.0
60.968933746,481.0
60.995194311,488.0
61.021454876,531.0
61.047715441,470.0
61.073976006,489.0
61.100236571,574.0
61.126497137,516.0
61.152757702,494.0
61.179018267,501.0
61.205278832,460.0
61.231539397,498.0
61.257799962,548.0
61.284060527,477.0
61.310321092,495.0
61.336581657,507.0
61.362842222,499.0
61.389102787,497.0
61.415363352,508.0
61.441623917,464.0
61.467884482,507.0
61.494145047,518.0
61.520405612,491.0
61.546666177,519.0
61.572926742,512.0
61.599187307,483.0
61.625447872,471.0
61.651708437,539.0
61.677969002,474.0
61.704229567,486.0
61.730490132,537.0
61.756750697,512.0
61.783011262,518.0
61.809271827,484.0
61.835532392,520.0
61.861792957,510.0
61.888053522,503.0
61.914314087,531.0
61.940574652,490.0
61.966835217,500.0
61.993095782,479.0
62.019356347,490.0
62.045616912,530.0
62.071877477,508.0
62.098138042,497.0
62.124398607,494.0
62.150659172,538.0
62.176919737,500.0
62.203180302,490.0
62.229440867,484.0
62.255701432,494.0
62.281961997,540.0
62.308222562,553.0
62.334483127,488.0
62.360743692,511.0
62.387004257,511.0
62.413264822,515.0
62.439525387,513.0
62.465785952,532.0
62.492046517,502.0
62.518307082,459.0
62.544567647,499.0
62.570828212,512.0
62.597088777,469.0
62.623349342,491.0
62.649609907,474.0
62.675870472,475.0
62.702131037,485.0
62.728391602,510.0
62.754652167,472.0
62.780912732,495.0
62.807173297,521.0
62.833433862,519.0
62.859694427,522.0
62.885954992,496.0
62.912215557,479.0
62.938476122,477.0
62.964736687,514.0
62.990997252,510.0
63.017257817,517.0
63.043518382,500.0
63.069778947,501.0
63.096039512,487.0
63.122300077,490.0
63.148560642,527.0
63.174821207,507.0
63.201081772,471.0
63.227342337,520.0
63.253602902,479.0
63.279863467,499.0
63.306124032,500.0
63.332384597,510.0
63.358645162,476.0
63.384905727,539.0
63.411166292,483.0
63.437426857,511.0
63.463687422,508.0
63.489947987,503.0
63.516208552,482.0
63.542469117,495.0
63.568729682,486.0
63.594990247,494.0
63.621250812,521.0
63.647511377,490.0
63.673771942,468.0
63.700032507,503.0
63.726293072,502.0
63.752553637,466.0
63.778814202,498.0
63.805074767,463.0
63.831335332,480.0
63.857595897,514.0
63.883856462,475.0
63.910117027,473.0
63.936377592,466.0
63.962638157,437.0
63.988898722,483.0
64.015159287,476.0
64.041419852,505.0
64.067680417,511.0
64.093940982,473.0
64.120201547,516.0
64.146462112,476.0
64.172722677,441.0
64.198983242,515.0
64.225243807,487.0
64.251504372,514.0
64.277764937,468.0
64.304025502,518.0
64.330286067,492.0
64.356546632,479.0
64.382807197,502.0
64.409067762,487.0
64.435328327,464.0
64.461588892,466.0
64.487849457,475.0
64.514110023,515.0
64.540370588,505.0
64.566631153,508.0
64.592891718,459.0
64.619152283,512.0
64.645412848,474.0
64.671673413,494.0
64.697933978,440.0
64.724194543,471.0
64.750455108,486.0
64.776715673,529.0
64.802976238,481.0
64.829236803,517.0
64.855497368,488.0
64.881757933,489.0
64.908018498,486.0
64.934279063,482.0
64.960539628,480.0
64.986800193,463.0
65.013060758,504.0
65.039321323,471.0
65.065581888,497.0
65.091842453,440.0
65.118103018,487.0
65.144363583,479.0
65.170624148,498.0
65.196884713,503.0
65.223145278,485.0
65.249405843,477.0
65.275666408,495.0
65.301926973,478.0
65.328187538,530.0
65.354448103,489.0
65.380708668,487.0
65.406969233,514.0
65.433229798,488.0
65.459490363,490.0
65.485750928,419.0
65.512011493,458.0
65.538272058,493.0
65.564532623,491.0
65.590793188,479.0
65.617053753,479.0
65.643314318,461.0
65.669574883,466.0
65.695835448,510.0
65.722096013,464.0
65.748356578,448.0
65.774617143,480.0
65.800877708,455.0
65.827138273,474.0
65.853398838,473.0
65.879659403,477.0
65.905919968,443.0
65.932180533,453.0
65.958441098,479.0
65.984701663,484.0
66.010962228,504.0
66.037222793,471.0
66.063483358,493.0
66.089743923,435.0
66.116004488,478.0
66.142265053,497.0
66.168525618,477.0
66.194786183,466.0
66.221046748,448.0
66.247307313,467.0
66.273567878,448.0
66.299828443,460.0
66.326089008,489.0
66.352349573,473.0
66.378610138,440.0
66.404870703,451.0
66.431131268,476.0
66.457391833,496.0
66.483652398,478.0
66.509912963,478.0
66.536173528,442.0
66.562434093,465.0
66.588694658,433.0
66.614955223,453.0
66.641215788,466.0
66.667476353,475.0
66.693736918,470.0
66.719997483,491.0
66.746258048,462.0
66.772518613,466.0
66.798779178,453.0
66.825039743,472.0
66.851300308,489.0
66.877560873,477.0
66.903821438,472.0
66.930082003,469.0
66.956342568,471.0
66.982603133,471.0
67.008863698,466.0
67.035124263,467.0
67.061384828,475.0
67.087645393,439.0
67.113905958,490.0
67.140166523,479.0
67.166427088,472.0
67.192687653,479.0
67.218948218,445.0
67.245208783,496.0
67.271469348,504.0
67.297729913,441.0
67.323990478,490.0
67.350251043,480.0
67.376511608,455.0
67.402772173,483.0
67.429032738,464.0
67.455293303,417.0
67.481553868,493.0
67.507814433,471.0
67.534074998,509.0
67.560335563,465.0
67.586596128,466.0
67.612856693,448.0
67.639117258,490.0
67.665377823,480.0
67.691638388,473.0
67.717898953,474.0
67.744159518,447.0
67.770420083,482.0
67.796680648,446.0
67.822941213,468.0
67.849201778,491.0
67.875462343,467.0
67.901722909,444.0
67.927983474,444.0
67.954244039,461.0
67.980504604,465.0
68.006765169,486.0
68.033025734,466.0
68.059286299,441.0
68.085546864,456.0
68.111807429,523.0
68.138067994,436.0
68.164328559,415.0
68.190589124,458.0
68.216849689,458.0
68.243110254,480.0
68.269370819,444.0
68.295631384,463.0
68.321891949,461.0
68.348152514,411.0
68.374413079,452.0
68.400673644,496.0
68.426934209,466.0
68.453194774,460.0
68.479455339,482.0
68.505715904,452.0
68.531976469,473.0
68.558237034,461.0
68.584497599,484.0
68.610758164,448.0
68.637018729,505.0
68.663279294,478.0
68.689539859,444.0
68.715800424,440.0
68.742060989,494.0
68.768321554,474.0
68.794582119,450.0
68.820842684,457.0
68.847103249,466.0
68.873363814,439.0
68.899624379,490.0
68.925884944,475.0
68.952145509,444.0
68.978406074,506.0
69.004666639,465.0
69.030927204,463.0
69.057187769,487.0
69.083448334,430.0
69.109708899,444.0
69.135969464,468.0
69.162230029,468.0
69.188490594,432.0
69.214751159,493.0
69.241011724,445.0
69.267272289,462.0
69.293532854,444.0
69.319793419,452.0
69.346053984,429.0
69.372314549,447.0
69.398575114,466.0
69.424835679,465.0
69.451096244,437.0
69.477356809,475.0
69.503617374,465.0
69.529877939,460.0
69.556138504,430.0
69.582399069,460.0
69.608659634,451.0
69.634920199,503.0
69.661180764,458.0
69.687441329,497.0
69.713701894,473.0
69.739962459,469.0
69.766223024,471.0
69.792483589,493.0
69.818744154,438.0
69.845004719,467.0
69.871265284,454.0
69.897525849,458.0
69.923786414,482.0
69.950046979,430.0
69.976307544,443.0
70.002568109,433.0
70.028828674,440.0
70.055089239,466.0
70.081349804,480.0
70.107610369,512.0
70.133870934,453.0
70.160131499,413.0
70.186392064,466.0
70.212652629,473.0
70.238913194,459.0
70.265173759,444.0
70.291434324,463.0
70.317694889,429.0
70.343955454,436.0
70.370216019,473.0
70.396476584,452.0
70.422737149,455.0
70.448997714,465.0
70.475258279,450.0
70.501518844,481.0
70.527779409,483.0
70.554039974,445.0
70.580300539,423.0
70.606561104,479.0
70.632821669,444.0
70.659082234,468.0
70.685342799,448.0
70.711603364,428.0
70.737863929,433.0
70.764124494,447.0
70.790385059,460.0
70.816645624,475.0
70.842906189,481.0
70.869166754,452.0
70.895427319,406.0
70.921687884,424.0
70.947948449,454.0
70.974209014,452.0
71.000469579,464.0
71.026730144,477.0
71.052990709,453.0
71.079251274,485.0
71.105511839,479.0
71.131772404,446.0
71.158032969,478.0
71.184293534,423.0
71.210554099,480.0
71.236814664,454.0
71.263075229,456.0
71.289335794,476.0
71.315596360,447.0
71.341856925,472.0
71.368117490,470.0
71.394378055,453.0
71.420638620,490.0
71.446899185,473.0
71.473159750,475.0
71.499420315,468.0
71.525680880,460.0
71.551941445,412.0
71.578202010,461.0
71.604462575,475.0
71.630723140,487.0
71.656983705,443.0
71.683244270,438.0
71.709504835,483.0
71.735765400,476.0
71.762025965,448.0
71.788286530,447.0
71.814547095,448.0
71.840807660,445.0
71.867068225,463.0
71.893328790,446.0
71.919589355,447.0
71.945849920,508.0
71.972110485,465.0
71.998371050,475.0
72.024631615,448.0
72.050892180,458.0
72.077152745,477.0
72.103413310,462.0
72.129673875,490.0
72.155934440,497.0
72.182195005,515.0
72.208455570,490.0
72.234716135,501.0
72.260976700,477.0
72.287237265,482.0
72.313497830,473.0
72.339758395,470.0
72.366018960,477.0
72.392279525,487.0
72.418540090,489.0
72.444800655,436.0
72.471061220,449.0
72.497321785,508.0
72.523582350,512.0
72.549842915,455.0
72.576103480,506.0
72.602364045,502.0
72.628624610,511.0
72.654885175,477.0
72.681145740,491.0
72.707406305,483.0
72.733666870,537.0
72.759927435,472.0
72.786188000,435.0
72.812448565,511.0
72.838709130,517.0
72.864969695,528.0
72.891230260,485.0
72.917490825,521.0
72.943751390,512.0
72.970011955,534.0
72.996272520,548.0
73.022533085,497.0
73.048793650,512.0
73.075054215,511.0
73.101314780,485.0
73.127575345,491.0
73.153835910,569.0
73.180096475,562.0
73.206357040,565.0
73.232617605,552.0
73.258878170,512.0
73.285138735,508.0
73.311399300,547.0
73.337659865,516.0
73.363920430,552.0
73.390180995,532.0
73.416441560,541.0
73.442702125,503.0
73.468962690,531.0
73.495223255,536.0
73.521483820,546.0
73.547744385,572.0
73.574004950,544.0
73.600265515,545.0
73.626526080,574.0
73.652786645,558.0
73.679047210,520.0
73.705307775,529.0
73.731568340,534.0
73.757828905,562.0
73.784089470,517.0
73.810350035,519.0
73.836610600,526.0
73.862871165,495.0
73.889131730,474.0
73.915392295,487.0
73.941652860,476.0
73.967913425,512.0
73.994173990,510.0
74.020434555,499.0
74.046695120,506.0
74.072955685,527.0
74.099216250,475.0
74.125476815,473.0
74.151737380,541.0
74.177997945,478.0
74.204258510,526.0
74.230519075,489.0
74.256779640,468.0
74.283040205,534.0
74.309300770,512.0
74.335561335,489.0
74.361821900,487.0
74.388082465,481.0
74.414343030,481.0
74.440603595,487.0
74.466864160,455.0
74.493124725,476.0
74.519385290,482.0
74.545645855,535.0
74.571906420,519.0
74.598166985,514.0
74.624427550,493.0
74.650688115,468.0
74.676948680,493.0
74.703209246,487.0
74.729469811,496.0
74.755730376,471.0
74.781990941,508.0
74.808251506,466.0
74.834512071,504.0
74.860772636,491.0
74.887033201,504.0
74.913293766,449.0
74.939554331,492.0
74.965814896,497.0
74.992075461,449.0
75.018336026,456.0
75.044596591,455.0
75.070857156,446.0
75.097117721,467.0
75.123378286,468.0
75.149638851,461.0
75.175899416,471.0
75.202159981,483.0
75.228420546,502.0
75.254681111,471.0
75.280941676,452.0
75.307202241,459.0
75.333462806,474.0
75.359723371,470.0
75.385983936,458.0
75.412244501,478.0
75.438505066,435.0
75.464765631,503.0
75.491026196,425.0
75.517286761,455.0
75.543547326,474.0
75.569807891,452.0
75.596068456,461.0
75.622329021,457.0
75.648589586,473.0
75.674850151,477.0
75.701110716,468.0
75.727371281,443.0
75.753631846,462.0
75.779892411,450.0
75.806152976,399.0
75.832413541,466.0
75.858674106,457.0
75.884934671,442.0
75.911195236,445.0
75.937455801,465.0
75.963716366,431.0
75.989976931,449.0
76.016237496,441.0
76.042498061,452.0
76.068758626,440.0
76.095019191,482.0
76.121279756,437.0
76.147540321,504.0
76.173800886,453.0
76.200061451,445.0
76.226322016,469.0
76.252582581,446.0
76.278843146,448.0
76.305103711,444.0
76.331364276,434.0
76.357624841,453.0
76.383885406,452.0
76.410145971,495.0
76.436406536,483.0
76.462667101,462.0
76.488927666,417.0
76.515188231,462.0
76.541448796,451.0
76.567709361,397.0
76.593969926,426.0
76.620230491,428.0
76.646491056,461.0
76.672751621,436.0
76.699012186,444.0
76.725272751,428.0
76.751533316,399.0
76.777793881,444.0
76.804054446,460.0
76.830315011,452.0
76.856575576,451.0
76.882836141,440.0
76.909096706,422.0
76.935357271,459.0
76.961617836,449.0
76.987878401,428.0
77.014138966,419.0
77.040399531,431.0
77.066660096,442.0
77.092920661,428.0
77.119181226,476.0
77.145441791,434.0
77.171702356,442.0
77.197962921,478.0
77.224223486,462.0
77.250484051,423.0
77.276744616,469.0
77.303005181,426.0
77.329265746,441.0
77.355526311,470.0
77.381786876,446.0
77.408047441,439.0
77.434308006,483.0
77.460568571,433.0
77.486829136,477.0
77.513089701,455.0
77.539350266,463.0
77.565610831,421.0
77.591871396,430.0
77.618131961,428.0
77.644392526,428.0
77.670653091,448.0
77.696913656,431.0
77.723174221,447.0
77.749434786,424.0
77.775695351,424.0
77.801955916,452.0
77.828216481,465.0
77.854477046,463.0
77.880737611,449.0
77.906998176,476.0
77.933258741,439.0
77.959519306,475.0
77.985779871,446.0
78.012040436,462.0
78.038301001,416.0
78.064561566,442.0
78.090822131,435.0
78.117082697,472.0
78.143343262,429.0
78.169603827,423.0
78.195864392,488.0
78.222124957,452.0
78.248385522,426.0
78.274646087,405.0
78.300906652,413.0
78.327167217,407.0
78.353427782,421.0
78.379688347,430.0
78.405948912,427.0
78.432209477,443.0
78.458470042,452.0
78.484730607,424.0
78.510991172,439.0
78.537251737,471.0
78.563512302,437.0
78.589772867,439.0
78.616033432,407.0
78.642293997,437.0
78.668554562,423.0
78.694815127,443.0
78.721075692,424.0
78.747336257,435.0
78.773596822,411.0
78.799857387,387.0
78.826117952,436.0
78.852378517,423.0
78.878639082,446.0
78.904899647,457.0
78.931160212,456.0
78.957420777,448.0
78.983681342,461.0
79.009941907,434.0
79.036202472,423.0
79.062463037,478.0
79.088723602,466.0
79.114984167,464.0
79.141244732,429.0
79.167505297,448.0
79.193765862,436.0
79.220026427,461.0
79.246286992,456.0
79.272547557,467.0
79.298808122,410.0
79.325068687,422.0
79.351329252,429.0
79.377589817,441.0
79.403850382,398.0
79.430110947,453.0
79.456371512,418.0
79.482632077,434.0
79.508892642,429.0
79.535153207,387.0
79.561413772,446.0
79.587674337,462.0
79.613934902,427.0
79.640195467,428.0
79.666456032,455.0
79.692716597,437.0
79.718977162,421.0
79.745237727,403.0
79.771498292,402.0
79.797758857,463.0
79.824019422,449.0
79.850279987,454.0
79.876540552,435.0
79.902801117,415.0
79.929061682,476.0
79.955322247,438.0
79.981582812,427.0
80.007843377,465.0
80.034103942,428.0
80.060364507,370.0
80.086625072,423.0
80.112885637,454.0
80.139146202,415.0
80.165406767,421.0
80.191667332,459.0
80.217927897,407.0
80.244188462,419.0
80.270449027,413.0
80.296709592,437.0
80.322970157,432.0
80.349230722,420.0
80.375491287,411.0
80.401751852,425.0
80.428012417,444.0
80.454272982,421.0
80.480533547,398.0
80.506794112,398.0
80.533054677,438.0
80.559315242,412.0
80.585575807,432.0
80.611836372,458.0
80.638096937,439.0
80.664357502,422.0
80.690618067,437.0
80.716878632,445.0
80.743139197,462.0
80.769399762,445.0
80.795660327,413.0
80.821920892,430.0
80.848181457,432.0
80.874442022,449.0
80.900702587,435.0
80.926963152,432.0
80.953223717,434.0
80.979484282,448.0
81.005744847,432.0
81.032005412,423.0
81.058265977,404.0
81.084526542,437.0
81.110787107,433.0
81.137047672,430.0
81.163308237,430.0
81.189568802,441.0
81.215829367,439.0
81.242089932,434.0
81.268350497,407.0
81.294611062,447.0
81.320871627,428.0
81.347132192,452.0
81.373392757,451.0
81.399653322,396.0
81.425913887,412.0
81.452174452,447.0
81.478435017,399.0
81.504695583,397.0
81.530956148,449.0
81.557216713,454.0
81.583477278,417.0
81.609737843,441.0
81.635998408,483.0
81.662258973,455.0
81.688519538,427.0
81.714780103,394.0
81.741040668,433.0
81.767301233,421.0
81.793561798,406.0
81.819822363,410.0
81.846082928,425.0
81.872343493,472.0
81.898604058,425.0
81.924864623,408.0
81.951125188,412.0
81.977385753,413.0
82.003646318,398.0
82.029906883,483.0
82.056167448,423.0
82.082428013,412.0
82.108688578,418.0
82.134949143,407.0
82.161209708,422.0
82.187470273,392.0
82.213730838,437.0
82.239991403,428.0
82.266251968,455.0
82.292512533,473.0
82.318773098,424.0
82.345033663,395.0
82.371294228,467.0
82.397554793,442.0
82.423815358,395.0
82.450075923,411.0
82.476336488,399.0
82.502597053,449.0
82.528857618,436.0
82.555118183,425.0
82.581378748,441.0
82.607639313,405.0
82.633899878,457.0
82.660160443,431.0
82.686421008,420.0
82.712681573,431.0
82.738942138,419.0
82.765202703,432.0
82.791463268,411.0
82.817723833,408.0
82.843984398,430.0
82.870244963,417.0
82.896505528,449.0
82.922766093,420.0
82.949026658,423.0
82.975287223,406.0
83.001547788,403.0
83.027808353,434.0
83.054068918,412.0
83.080329483,397.0
83.106590048,442.0
83.132850613,404.0
83.159111178,432.0
83.185371743,433.0
83.211632308,395.0
83.237892873,379.0
83.264153438,410.0
83.290414003,420.0
83.316674568,393.0
83.342935133,414.0
83.369195698,410.0
83.395456263,415.0
83.421716828,431.0
83.447977393,385.0
83.474237958,417.0
83.500498523,451.0
83.526759088,409.0
83.553019653,467.0
83.579280218,387.0
83.605540783,411.0
83.631801348,410.0
83.658061913,423.0
83.684322478,383.0
83.710583043,414.0
83.736843608,426.0
83.763104173,401.0
83.789364738,376.0
83.815625303,437.0
83.841885868,389.0
83.868146433,422.0
83.894406998,431.0
83.920667563,426.0
83.946928128,451.0
83.973188693,397.0
83.999449258,370.0
84.025709823,438.0
84.051970388,429.0
84.078230953,431.0
84.104491518,377.0
84.130752083,383.0
84.157012648,439.0
84.183273213,397.0
84.209533778,426.0
84.235794343,422.0
84.262054908,404.0
84.288315473,386.0
84.314576038,432.0
84.340836603,417.0
84.367097168,399.0
84.393357733,429.0
84.419618298,413.0
84.445878863,397.0
84.472139428,407.0
84.498399993,428.0
84.524660558,384.0
84.550921123,396.0
84.577181688,414.0
84.603442253,417.0
84.629702818,467.0
84.655963383,379.0
84.682223948,401.0
84.708484513,395.0
84.734745078,395.0
84.761005643,418.0
84.787266208,419.0
84.813526773,388.0
84.839787338,407.0
84.866047903,454.0
84.892308469,405.0
84.918569034,437.0
84.944829599,413.0
84.971090164,421.0
84.997350729,363.0
85.023611294,426.0
85.049871859,410.0
85.076132424,406.0
85.102392989,387.0
85.128653554,417.0
85.154914119,399.0
85.181174684,413.0
85.207435249,397.0
85.233695814,427.0
85.259956379,447.0
85.286216944,396.0
85.312477509,394.0
85.338738074,434.0
85.364998639,392.0
85.391259204,430.0
85.417519769,401.0
85.443780334,414.0
85.470040899,434.0
85.496301464,421.0
85.522562029,426.0
85.548822594,429.0
85.575083159,407.0
85.601343724,397.0
85.627604289,386.0
85.653864854,439.0
85.680125419,412.0
85.706385984,394.0
85.732646549,382.0
85.758907114,387.0
85.785167679,421.0
85.811428244,405.0
85.837688809,442.0
85.863949374,401.0
85.890209939,394.0
85.916470504,430.0
85.942731069,392.0
85.968991634,417.0
85.995252199,468.0
86.021512764,385.0
86.047773329,421.0
86.074033894,451.0
86.100294459,425.0
86.126555024,459.0
86.152815589,441.0
86.179076154,428.0
86.205336719,408.0
86.231597284,444.0
86.257857849,443.0
86.284118414,412.0
86.310378979,458.0
86.336639544,400.0
86.362900109,394.0
86.389160674,425.0
86.415421239,406.0
86.441681804,430.0
86.467942369,430.0
86.494202934,423.0
86.520463499,430.0
86.546724064,449.0
86.572984629,421.0
86.599245194,422.0
86.625505759,420.0
86.651766324,403.0
86.678026889,411.0
86.704287454,404.0
86.730548019,434.0
86.756808584,404.0
86.783069149,393.0
86.809329714,391.0
86.835590279,414.0
86.861850844,443.0
86.888111409,409.0
86.914371974,459.0
86.940632539,402.0
86.966893104,418.0
86.993153669,455.0
87.019414234,446.0
87.045674799,431.0
87.071935364,410.0
87.098195929,431.0
87.124456494,439.0
87.150717059,416.0
87.176977624,412.0
87.203238189,401.0
87.229498754,401.0
87.255759319,447.0
87.282019884,458.0
87.308280449,433.0
87.334541014,466.0
87.360801579,431.0
87.387062144,454.0
87.413322709,401.0
87.439583274,403.0
87.465843839,420.0
87.492104404,414.0
87.518364969,448.0
87.544625534,436.0
87.570886099,444.0
87.597146664,425.0
87.623407229,379.0
87.649667794,440.0
87.675928359,459.0
87.702188924,423.0
87.728449489,417.0
87.754710054,419.0
87.780970619,437.0
87.807231184,450.0
87.833491749,432.0
87.859752314,396.0
87.886012879,406.0
87.912273444,451.0
87.938534009,414.0
87.964794574,431.0
87.991055139,413.0
88.017315704,404.0
88.043576269,392.0
88.069836834,446.0
88.096097399,483.0
88.122357964,416.0
88.148618529,468.0
88.174879094,450.0
88.201139659,431.0
88.227400224,434.0
88.253660789,441.0
88.279921354,449.0
88.306181920,407.0
88.332442485,453.0
88.358703050,397.0
88.384963615,440.0
88.411224180,434.0
88.437484745,395.0
88.463745310,445.0
88.490005875,467.0
88.516266440,443.0
88.542527005,455.0
88.568787570,413.0
88.595048135,386.0
88.621308700,425.0
88.647569265,427.0
88.673829830,414.0
88.700090395,426.0
88.726350960,396.0
88.752611525,367.0
88.778872090,417.0
88.805132655,456.0
88.831393220,383.0
88.857653785,405.0
88.883914350,381.0
88.910174915,421.0
88.936435480,414.0
88.962696045,411.0
88.988956610,414.0
89.015217175,443.0
89.041477740,419.0
89.067738305,427.0
89.093998870,437.0
89.120259435,428.0
89.146520000,414.0
89.172780565,413.0
89.199041130,409.0
89.225301695,470.0
89.251562260,421.0
89.277822825,396.0
89.304083390,384.0
89.330343955,418.0
89.356604520,439.0
89.382865085,421.0
89.409125650,442.0
89.435386215,397.0
89.461646780,450.0
89.487907345,415.0
89.514167910,412.0
89.540428475,371.0
89.566689040,413.0
89.592949605,458.0
89.619210170,411.0
89.645470735,419.0
89.671731300,432.0
89.697991865,404.0
89.724252430,441.0
89.750512995,411.0
89.776773560,431.0
89.803034125,401.0
89.829294690,413.0
89.855555255,414.0
89.881815820,468.0
89.908076385,443.0
89.934336950,432.0
89.960597515,382.0
89.986858080,466.0
