[Measurement conditions]
Sample identification,
Comment - 1,"Configuration=Stage for flat samples/holders, Owner=User-1, Creation date=3/27/2015 11:56:23 AM"
Comment - 2,"Goniometer=Theta/Theta; Minimum step size 2Theta:0.0001; Minimum step size Omega:0.0001"
Comment - 3,"Sample stage=Stage for flat samples/holders"
Comment - 4,"Diffractometer system=EMPYREAN"
Comment - 5,"Measurement program=C:\PANalytical\Data Collector\Programs\Powder - Copy.xrdmp, Identifier={BEEA10DD-8FD6-4721-8940-4FBC5A4262A1}"
Comment - 6,"Fine Calibration Offset for 2Theta = -0.0130 deg"
Comment - 7,"Fine Calibration Offset for Omega = -0.0070 deg"
Anode material,Cu
K-Alpha1 wavelength,1.5405980
K-Alpha2 wavelength,1.5444260
Ratio K-Alpha2/K-Alpha1,0.500
Divergence slit,Fixed,0.38mm
Monochromator used,NO
Generator voltage, 40
Tube current, 35
File date and time,24/Jul/2017 16:46
Unit cell,
h k l, 0 0 0
Scan axis,Gonio
Scan range,5.020799997,89.999988363
Scan step size,0.0262606
No. of points, 3236
Scan type,CONTINUOUS
Time per step,18.615
[Scan points]
Angle,Intensity
5.033930280,3306.0
5.060190845,3258.0
5.086451410,3357.0
5.112711975,3257.0
5.138972540,3239.0
5.165233105,3332.0
5.191493670,3222.0
5.217754235,3250.0
5.244014800,3145.0
5.270275365,3163.0
5.296535930,3271.0
5.322796495,3133.0
5.349057060,3034.0
5.375317625,3200.0
5.401578190,3122.0
5.427838755,3065.0
5.454099320,3081.0
5.480359885,3080.0
5.506620450,3037.0
5.532881015,3113.0
5.559141580,3059.0
5.585402145,3023.0
5.611662710,3004.0
5.637923275,2953.0
5.664183840,3016.0
5.690444405,3062.0
5.716704970,2996.0
5.742965535,3057.0
5.769226100,2938.0
5.795486665,2932.0
5.821747230,2942.0
5.848007795,2919.0
5.874268360,2804.0
5.900528925,3008.0
5.926789490,2880.0
5.953050055,2905.0
5.979310620,2832.0
6.005571185,2854.0
6.031831750,2867.0
6.058092315,2824.0
6.084352880,2773.0
6.110613445,2762.0
6.136874010,2793.0
6.163134575,2787.0
6.189395140,2867.0
6.215655705,2752.0
6.241916270,2714.0
6.268176835,2733.0
6.294437400,2649.0
6.320697965,2692.0
6.346958530,2707.0
6.373219095,2619.0
6.399479660,2774.0
6.425740225,2612.0
6.452000790,2705.0
6.478261355,2740.0
6.504521920,2632.0
6.530782485,2710.0
6.557043050,2681.0
6.583303615,2571.0
6.609564180,2762.0
6.635824745,2609.0
6.662085310,2584.0
6.688345875,2535.0
6.714606440,2658.0
6.740867006,2496.0
6.767127571,2486.0
6.793388136,2497.0
6.819648701,2595.0
6.845909266,2577.0
6.872169831,2622.0
6.898430396,2571.0
6.924690961,2542.0
6.950951526,2585.0
6.977212091,2543.0
7.003472656,2416.0
7.029733221,2620.0
7.055993786,2491.0
7.082254351,2479.0
7.108514916,2503.0
7.134775481,2519.0
7.161036046,2409.0
7.187296611,2493.0
7.213557176,2511.0
7.239817741,2470.0
7.266078306,2316.0
7.292338871,2429.0
7.318599436,2380.0
7.344860001,2403.0
7.371120566,2449.0
7.397381131,2452.0
7.423641696,2286.0
7.449902261,2364.0
7.476162826,2434.0
7.502423391,2423.0
7.528683956,2352.0
7.554944521,2407.0
7.581205086,2387.0
7.607465651,2261.0
7.633726216,2241.0
7.659986781,2360.0
7.686247346,2307.0
7.712507911,2256.0
7.738768476,2306.0
7.765029041,2322.0
7.791289606,2323.0
7.817550171,2373.0
7.843810736,2357.0
7.870071301,2207.0
7.896331866,2327.0
7.922592431,2312.0
7.948852996,2277.0
7.975113561,2302.0
8.001374126,2247.0
8.027634691,2314.0
8.053895256,2246.0
8.080155821,2260.0
8.106416386,2241.0
8.132676951,2276.0
8.158937516,2273.0
8.185198081,2178.0
8.211458646,2242.0
8.237719211,2254.0
8.263979776,2274.0
8.290240341,2213.0
8.316500906,2270.0
8.342761471,2135.0
8.369022036,2229.0
8.395282601,2211.0
8.421543166,2257.0
8.447803731,2120.0
8.474064296,2207.0
8.500324861,2170.0
8.526585426,2209.0
8.552845991,2234.0
8.579106556,2143.0
8.605367121,2210.0
8.631627686,2195.0
8.657888251,2173.0
8.684148816,2178.0
8.710409381,2166.0
8.736669946,2127.0
8.762930511,2175.0
8.789191076,2183.0
8.815451641,2192.0
8.841712206,2172.0
8.867972771,2090.0
8.894233336,2167.0
8.920493901,2152.0
8.946754466,2032.0
8.973015031,2069.0
8.999275596,2113.0
9.025536161,2098.0
9.051796726,2078.0
9.078057291,2210.0
9.104317856,2154.0
9.130578421,2100.0
9.156838986,2090.0
9.183099551,2209.0
9.209360116,2096.0
9.235620681,2096.0
9.261881246,2045.0
9.288141811,2071.0
9.314402376,2150.0
9.340662941,2152.0
9.366923506,2015.0
9.393184071,2149.0
9.419444636,2163.0
9.445705201,2038.0
9.471965766,2171.0
9.498226331,2064.0
9.524486896,2091.0
9.550747461,2092.0
9.577008026,2108.0
9.603268591,2056.0
9.629529156,1999.0
9.655789721,2045.0
9.682050286,1993.0
9.708310851,2088.0
9.734571416,2131.0
9.760831981,2091.0
9.787092546,2102.0
9.813353111,1991.0
9.839613676,2067.0
9.865874241,2106.0
9.892134806,1961.0
9.918395371,1964.0
9.944655936,2096.0
9.970916501,2045.0
9.997177066,2066.0
10.023437631,2141.0
10.049698196,2036.0
10.075958761,2093.0
10.102219326,2046.0
10.128479891,2071.0
10.154740457,2075.0
10.181001022,2007.0
10.207261587,1967.0
10.233522152,2080.0
10.259782717,2047.0
10.286043282,2053.0
10.312303847,2059.0
10.338564412,2057.0
10.364824977,2012.0
10.391085542,1991.0
10.417346107,2016.0
10.443606672,2046.0
10.469867237,2018.0
10.496127802,2004.0
10.522388367,1950.0
10.548648932,1953.0
10.574909497,2040.0
10.601170062,2028.0
10.627430627,2030.0
10.653691192,2017.0
10.679951757,2014.0
10.706212322,2077.0
10.732472887,2077.0
10.758733452,2036.0
10.784994017,2120.0
10.811254582,2049.0
10.837515147,2000.0
10.863775712,1999.0
10.890036277,2014.0
10.916296842,1991.0
10.942557407,2012.0
10.968817972,2035.0
10.995078537,1988.0
11.021339102,2071.0
11.047599667,2101.0
11.073860232,2008.0
11.100120797,2039.0
11.126381362,2027.0
11.152641927,1976.0
11.178902492,2044.0
11.205163057,1948.0
11.231423622,1965.0
11.257684187,2095.0
11.283944752,1946.0
11.310205317,2015.0
11.336465882,2028.0
11.362726447,2069.0
11.388987012,2035.0
11.415247577,1990.0
11.441508142,2064.0
11.467768707,2030.0
11.494029272,2049.0
11.520289837,2013.0
11.546550402,2045.0
11.572810967,2023.0
11.599071532,1989.0
11.625332097,2120.0
11.651592662,1931.0
11.677853227,2026.0
11.704113792,2005.0
11.730374357,2051.0
11.756634922,1938.0
11.782895487,2024.0
11.809156052,2060.0
11.835416617,2074.0
11.861677182,2007.0
11.887937747,1941.0
11.914198312,2029.0
11.940458877,2001.0
11.966719442,2085.0
11.992980007,2015.0
12.019240572,2015.0
12.045501137,2017.0
12.071761702,2073.0
12.098022267,2058.0
12.124282832,2048.0
12.150543397,1937.0
12.176803962,2076.0
12.203064527,1979.0
12.229325092,1959.0
12.255585657,2127.0
12.281846222,2096.0
12.308106787,1964.0
12.334367352,1969.0
12.360627917,2077.0
12.386888482,2029.0
12.413149047,2079.0
12.439409612,2004.0
12.465670177,2069.0
12.491930742,2058.0
12.518191307,2093.0
12.544451872,2164.0
12.570712437,2038.0
12.596973002,2036.0
12.623233567,2088.0
12.649494132,2001.0
12.675754697,2130.0
12.702015262,1961.0
12.728275827,2005.0
12.754536392,2098.0
12.780796957,2059.0
12.807057522,2097.0
12.833318087,2086.0
12.859578652,2087.0
12.885839217,2112.0
12.912099782,2132.0
12.938360347,2154.0
12.964620912,2035.0
12.990881477,2141.0
13.017142042,2070.0
13.043402607,2003.0
13.069663172,2080.0
13.095923737,2137.0
13.122184302,2062.0
13.148444867,2102.0
13.174705432,2119.0
13.200965997,2109.0
13.227226562,2023.0
13.253487127,2080.0
13.279747692,2126.0
13.306008257,2042.0
13.332268822,2127.0
13.358529387,2259.0
13.384789952,2207.0
13.411050517,2081.0
13.437311082,2184.0
13.463571647,2155.0
13.489832212,2030.0
13.516092777,2045.0
13.542353343,2097.0
13.568613908,2163.0
13.594874473,2130.0
13.621135038,2184.0
13.647395603,2161.0
13.673656168,2143.0
13.699916733,2080.0
13.726177298,2152.0
13.752437863,2122.0
13.778698428,2193.0
13.804958993,2156.0
13.831219558,2187.0
13.857480123,2145.0
13.883740688,2189.0
13.910001253,2179.0
13.936261818,2180.0
13.962522383,2160.0
13.988782948,2139.0
14.015043513,2167.0
14.041304078,2183.0
14.067564643,2193.0
14.093825208,2153.0
14.120085773,2134.0
14.146346338,2134.0
14.172606903,2133.0
14.198867468,2190.0
14.225128033,2108.0
14.251388598,2115.0
14.277649163,2188.0
14.303909728,2170.0
14.330170293,2203.0
14.356430858,2169.0
14.382691423,2127.0
14.408951988,2162.0
14.435212553,2213.0
14.461473118,2217.0
14.487733683,2192.0
14.513994248,2171.0
14.540254813,2205.0
14.566515378,2185.0
14.592775943,2187.0
14.619036508,2204.0
14.645297073,2126.0
14.671557638,2212.0
14.697818203,2249.0
14.724078768,2172.0
14.750339333,2230.0
14.776599898,2144.0
14.802860463,2211.0
14.829121028,2149.0
14.855381593,2135.0
14.881642158,2076.0
14.907902723,2194.0
14.934163288,2108.0
14.960423853,2172.0
14.986684418,2127.0
15.012944983,2112.0
15.039205548,2184.0
15.065466113,2131.0
15.091726678,2161.0
15.117987243,2024.0
15.144247808,2159.0
15.170508373,2125.0
15.196768938,2052.0
15.223029503,1979.0
15.249290068,2041.0
15.275550633,1989.0
15.301811198,2016.0
15.328071763,1995.0
15.354332328,1889.0
15.380592893,1942.0
15.406853458,1782.0
15.433114023,1822.0
15.459374588,1762.0
15.485635153,1819.0
15.511895718,1722.0
15.538156283,1712.0
15.564416848,1722.0
15.590677413,1636.0
15.616937978,1635.0
15.643198543,1526.0
15.669459108,1534.0
15.695719673,1607.0
15.721980238,1533.0
15.748240803,1509.0
15.774501368,1575.0
15.800761933,1512.0
15.827022498,1404.0
15.853283063,1414.0
15.879543628,1352.0
15.905804193,1384.0
15.932064758,1368.0
15.958325323,1366.0
15.984585888,1285.0
16.010846453,1359.0
16.037107018,1241.0
16.063367583,1286.0
16.089628148,1202.0
16.115888713,1180.0
16.142149278,1236.0
16.168409843,1243.0
16.194670408,1234.0
16.220930973,1194.0
16.247191538,1197.0
16.273452103,1221.0
16.299712668,1130.0
16.325973233,1074.0
16.352233798,1138.0
16.378494363,1109.0
16.404754928,1129.0
16.431015493,1057.0
16.457276058,1140.0
16.483536623,1070.0
16.509797188,1057.0
16.536057753,1022.0
16.562318318,1021.0
16.588578883,1109.0
16.614839448,1022.0
16.641100013,987.0
16.667360578,980.0
16.693621143,1090.0
16.719881708,1014.0
16.746142273,1076.0
16.772402838,1061.0
16.798663403,985.0
16.824923968,990.0
16.851184533,943.0
16.877445098,992.0
16.903705663,980.0
16.929966229,972.0
16.956226794,982.0
16.982487359,988.0
17.008747924,973.0
17.035008489,982.0
17.061269054,933.0
17.087529619,909.0
17.113790184,952.0
17.140050749,922.0
17.166311314,915.0
17.192571879,922.0
17.218832444,974.0
17.245093009,899.0
17.271353574,919.0
17.297614139,924.0
17.323874704,920.0
17.350135269,970.0
17.376395834,927.0
17.402656399,895.0
17.428916964,912.0
17.455177529,903.0
17.481438094,860.0
17.507698659,894.0
17.533959224,900.0
17.560219789,902.0
17.586480354,919.0
17.612740919,887.0
17.639001484,824.0
17.665262049,874.0
17.691522614,831.0
17.717783179,848.0
17.744043744,854.0
17.770304309,859.0
17.796564874,858.0
17.822825439,836.0
17.849086004,887.0
17.875346569,881.0
17.901607134,849.0
17.927867699,845.0
17.954128264,887.0
17.980388829,827.0
18.006649394,806.0
18.032909959,838.0
18.059170524,819.0
18.085431089,796.0
18.111691654,803.0
18.137952219,864.0
18.164212784,850.0
18.190473349,783.0
18.216733914,850.0
18.242994479,826.0
18.269255044,780.0
18.295515609,835.0
18.321776174,806.0
18.348036739,791.0
18.374297304,828.0
18.400557869,863.0
18.426818434,841.0
18.453078999,814.0
18.479339564,815.0
18.505600129,793.0
18.531860694,775.0
18.558121259,760.0
18.584381824,747.0
18.610642389,857.0
18.636902954,813.0
18.663163519,772.0
18.689424084,847.0
18.715684649,828.0
18.741945214,831.0
18.768205779,786.0
18.794466344,808.0
18.820726909,801.0
18.846987474,768.0
18.873248039,769.0
18.899508604,797.0
18.925769169,835.0
18.952029734,735.0
18.978290299,769.0
19.004550864,770.0
19.030811429,774.0
19.057071994,775.0
19.083332559,785.0
19.109593124,792.0
19.135853689,844.0
19.162114254,805.0
19.188374819,810.0
19.214635384,849.0
19.240895949,745.0
19.267156514,743.0
19.293417079,782.0
19.319677644,781.0
19.345938209,803.0
19.372198774,774.0
19.398459339,779.0
19.424719904,770.0
19.450980469,790.0
19.477241034,788.0
19.503501599,789.0
19.529762164,751.0
19.556022729,804.0
19.582283294,701.0
19.608543859,741.0
19.634804424,780.0
19.661064989,754.0
19.687325554,810.0
19.713586119,821.0
19.739846684,757.0
19.766107249,749.0
19.792367814,820.0
19.818628379,699.0
19.844888944,721.0
19.871149509,756.0
19.897410074,798.0
19.923670639,791.0
19.949931204,729.0
19.976191769,760.0
20.002452334,786.0
20.028712899,706.0
20.054973464,755.0
20.081234029,770.0
20.107494594,766.0
20.133755159,735.0
20.160015724,754.0
20.186276289,727.0
20.212536854,806.0
20.238797419,741.0
20.265057984,785.0
20.291318549,791.0
20.317579114,812.0
20.343839680,694.0
20.370100245,768.0
20.396360810,756.0
20.422621375,806.0
20.448881940,811.0
20.475142505,793.0
20.501403070,761.0
20.527663635,786.0
20.553924200,744.0
20.580184765,756.0
20.606445330,802.0
20.632705895,787.0
20.658966460,739.0
20.685227025,827.0
20.711487590,757.0
20.737748155,809.0
20.764008720,759.0
20.790269285,787.0
20.816529850,758.0
20.842790415,768.0
20.869050980,751.0
20.895311545,786.0
20.921572110,836.0
20.947832675,761.0
20.974093240,828.0
21.000353805,803.0
21.026614370,759.0
21.052874935,784.0
21.079135500,835.0
21.105396065,779.0
21.131656630,736.0
21.157917195,765.0
21.184177760,751.0
21.210438325,764.0
21.236698890,801.0
21.262959455,759.0
21.289220020,673.0
21.315480585,781.0
21.341741150,770.0
21.368001715,765.0
21.394262280,787.0
21.420522845,773.0
21.446783410,819.0
21.473043975,765.0
21.499304540,679.0
21.525565105,730.0
21.551825670,772.0
21.578086235,782.0
21.604346800,742.0
21.630607365,771.0
21.656867930,736.0
21.683128495,732.0
21.709389060,802.0
21.735649625,773.0
21.761910190,803.0
21.788170755,758.0
21.814431320,722.0
21.840691885,728.0
21.866952450,748.0
21.893213015,752.0
21.919473580,766.0
21.945734145,778.0
21.971994710,757.0
21.998255275,741.0
22.024515840,810.0
22.050776405,740.0
22.077036970,708.0
22.103297535,757.0
22.129558100,759.0
22.155818665,743.0
22.182079230,765.0
22.208339795,777.0
22.234600360,806.0
22.260860925,736.0
22.287121490,788.0
22.313382055,780.0
22.339642620,800.0
22.365903185,780.0
22.392163750,760.0
22.418424315,776.0
22.444684880,745.0
22.470945445,759.0
22.497206010,736.0
22.523466575,724.0
22.549727140,787.0
22.575987705,770.0
22.602248270,763.0
22.628508835,775.0
22.654769400,742.0
22.681029965,780.0
22.707290530,750.0
22.733551095,715.0
22.759811660,772.0
22.786072225,755.0
22.812332790,779.0
22.838593355,737.0
22.864853920,752.0
22.891114485,799.0
22.917375050,742.0
22.943635615,717.0
22.969896180,712.0
22.996156745,746.0
23.022417310,752.0
23.048677875,727.0
23.074938440,752.0
23.101199005,742.0
23.127459570,723.0
23.153720135,768.0
23.179980700,770.0
23.206241265,722.0
23.232501830,752.0
23.258762395,744.0
23.285022960,782.0
23.311283525,742.0
23.337544090,768.0
23.363804655,727.0
23.390065220,756.0
23.416325785,753.0
23.442586350,746.0
23.468846915,792.0
23.495107480,794.0
23.521368045,729.0
23.547628610,713.0
23.573889175,705.0
23.600149740,766.0
23.626410305,736.0
23.652670870,766.0
23.678931435,723.0
23.705192000,739.0
23.731452566,723.0
23.757713131,760.0
23.783973696,732.0
23.810234261,754.0
23.836494826,717.0
23.862755391,690.0
23.889015956,779.0
23.915276521,730.0
23.941537086,797.0
23.967797651,791.0
23.994058216,742.0
24.020318781,752.0
24.046579346,727.0
24.072839911,763.0
24.099100476,765.0
24.125361041,722.0
24.151621606,748.0
24.177882171,770.0
24.204142736,729.0
24.230403301,678.0
24.256663866,724.0
24.282924431,749.0
24.309184996,775.0
24.335445561,753.0
24.361706126,729.0
24.387966691,708.0
24.414227256,744.0
24.440487821,701.0
24.466748386,773.0
24.493008951,773.0
24.519269516,759.0
24.545530081,765.0
24.571790646,777.0
24.598051211,747.0
24.624311776,772.0
24.650572341,758.0
24.676832906,753.0
24.703093471,774.0
24.729354036,699.0
24.755614601,790.0
24.781875166,705.0
24.808135731,769.0
24.834396296,815.0
24.860656861,702.0
24.886917426,750.0
24.913177991,765.0
24.939438556,736.0
24.965699121,691.0
24.991959686,745.0
25.018220251,738.0
25.044480816,673.0
25.070741381,799.0
25.097001946,736.0
25.123262511,746.0
25.149523076,795.0
25.175783641,772.0
25.202044206,803.0
25.228304771,711.0
25.254565336,798.0
25.280825901,781.0
25.307086466,731.0
25.333347031,720.0
25.359607596,746.0
25.385868161,686.0
25.412128726,762.0
25.438389291,756.0
25.464649856,761.0
25.490910421,720.0
25.517170986,727.0
25.543431551,761.0
25.569692116,815.0
25.595952681,704.0
25.622213246,794.0
25.648473811,771.0
25.674734376,725.0
25.700994941,778.0
25.727255506,769.0
25.753516071,704.0
25.779776636,752.0
25.806037201,752.0
25.832297766,718.0
25.858558331,725.0
25.884818896,688.0
25.911079461,740.0
25.937340026,768.0
25.963600591,740.0
25.989861156,729.0
26.016121721,753.0
26.042382286,743.0
26.068642851,758.0
26.094903416,704.0
26.121163981,717.0
26.147424546,713.0
26.173685111,735.0
26.199945676,728.0
26.226206241,769.0
26.252466806,765.0
26.278727371,772.0
26.304987936,776.0
26.331248501,739.0
26.357509066,714.0
26.383769631,710.0
26.410030196,708.0
26.436290761,701.0
26.462551326,694.0
26.488811891,734.0
26.515072456,750.0
26.541333021,731.0
26.567593586,732.0
26.593854151,750.0
26.620114716,731.0
26.646375281,701.0
26.672635846,723.0
26.698896411,716.0
26.725156976,709.0
26.751417541,693.0
26.777678106,756.0
26.803938671,743.0
26.830199236,717.0
26.856459801,735.0
26.882720366,707.0
26.908980931,718.0
26.935241496,706.0
26.961502061,674.0
26.987762626,676.0
27.014023191,728.0
27.040283756,747.0
27.066544321,744.0
27.092804886,707.0
27.119065451,691.0
27.145326017,740.0
27.171586582,682.0
27.197847147,752.0
27.224107712,767.0
27.250368277,715.0
27.276628842,735.0
27.302889407,662.0
27.329149972,721.0
27.355410537,700.0
27.381671102,756.0
27.407931667,733.0
27.434192232,734.0
27.460452797,732.0
27.486713362,773.0
27.512973927,728.0
27.539234492,747.0
27.565495057,671.0
27.591755622,728.0
27.618016187,716.0
27.644276752,692.0
27.670537317,726.0
27.696797882,721.0
27.723058447,751.0
27.749319012,672.0
27.775579577,654.0
27.801840142,706.0
27.828100707,765.0
27.854361272,775.0
27.880621837,707.0
27.906882402,750.0
27.933142967,690.0
27.959403532,733.0
27.985664097,753.0
28.011924662,732.0
28.038185227,736.0
28.064445792,715.0
28.090706357,673.0
28.116966922,712.0
28.143227487,635.0
28.169488052,702.0
28.195748617,778.0
28.222009182,704.0
28.248269747,669.0
28.274530312,689.0
28.300790877,719.0
28.327051442,709.0
28.353312007,695.0
28.379572572,711.0
28.405833137,702.0
28.432093702,719.0
28.458354267,689.0
28.484614832,741.0
28.510875397,720.0
28.537135962,682.0
28.563396527,732.0
28.589657092,742.0
28.615917657,656.0
28.642178222,701.0
28.668438787,755.0
28.694699352,669.0
28.720959917,674.0
28.747220482,691.0
28.773481047,705.0
28.799741612,665.0
28.826002177,697.0
28.852262742,680.0
28.878523307,695.0
28.904783872,719.0
28.931044437,702.0
28.957305002,733.0
28.983565567,711.0
29.009826132,684.0
29.036086697,709.0
29.062347262,740.0
29.088607827,675.0
29.114868392,686.0
29.141128957,687.0
29.167389522,727.0
29.193650087,715.0
29.219910652,671.0
29.246171217,723.0
29.272431782,748.0
29.298692347,721.0
29.324952912,735.0
29.351213477,695.0
29.377474042,707.0
29.403734607,666.0
29.429995172,686.0
29.456255737,658.0
29.482516302,693.0
29.508776867,744.0
29.535037432,697.0
29.561297997,736.0
29.587558562,670.0
29.613819127,736.0
29.640079692,703.0
29.666340257,652.0
29.692600822,691.0
29.718861387,712.0
29.745121952,748.0
29.771382517,680.0
29.797643082,723.0
29.823903647,682.0
29.850164212,650.0
29.876424777,696.0
29.902685342,653.0
29.928945907,736.0
29.955206472,711.0
29.981467037,689.0
30.007727602,691.0
30.033988167,690.0
30.060248732,692.0
30.086509297,735.0
30.112769862,716.0
30.139030427,709.0
30.165290992,726.0
30.191551557,657.0
30.217812122,705.0
30.244072687,657.0
30.270333252,660.0
30.296593817,727.0
30.322854382,688.0
30.349114947,696.0
30.375375512,694.0
30.401636077,722.0
30.427896642,669.0
30.454157207,687.0
30.480417772,691.0
30.506678337,692.0
30.532938903,712.0
30.559199468,654.0
30.585460033,706.0
30.611720598,707.0
30.637981163,659.0
30.664241728,630.0
30.690502293,672.0
30.716762858,672.0
30.743023423,737.0
30.769283988,666.0
30.795544553,719.0
30.821805118,648.0
30.848065683,688.0
30.874326248,647.0
30.900586813,659.0
30.926847378,679.0
30.953107943,627.0
30.979368508,664.0
31.005629073,655.0
31.031889638,662.0
31.058150203,646.0
31.084410768,673.0
31.110671333,670.0
31.136931898,682.0
31.163192463,642.0
31.189453028,590.0
31.215713593,632.0
31.241974158,650.0
31.268234723,676.0
31.294495288,650.0
31.320755853,618.0
31.347016418,619.0
31.373276983,653.0
31.399537548,618.0
31.425798113,629.0
31.452058678,632.0
31.478319243,629.0
31.504579808,637.0
31.530840373,645.0
31.557100938,631.0
31.583361503,633.0
31.609622068,662.0
31.635882633,619.0
31.662143198,695.0
31.688403763,628.0
31.714664328,621.0
31.740924893,609.0
31.767185458,670.0
31.793446023,649.0
31.819706588,594.0
31.845967153,618.0
31.872227718,648.0
31.898488283,602.0
31.924748848,572.0
31.951009413,615.0
31.977269978,646.0
32.003530543,612.0
32.029791108,599.0
32.056051673,607.0
32.082312238,651.0
32.108572803,603.0
32.134833368,636.0
32.161093933,600.0
32.187354498,611.0
32.213615063,633.0
32.239875628,581.0
32.266136193,560.0
32.292396758,597.0
32.318657323,606.0
32.344917888,602.0
32.371178453,577.0
32.397439018,598.0
32.423699583,626.0
32.449960148,620.0
32.476220713,569.0
32.502481278,575.0
32.528741843,572.0
32.555002408,631.0
32.581262973,556.0
32.607523538,570.0
32.633784103,566.0
32.660044668,556.0
32.686305233,558.0
32.712565798,580.0
32.738826363,604.0
32.765086928,613.0
32.791347493,582.0
32.817608058,570.0
32.843868623,580.0
32.870129188,565.0
32.896389753,559.0
32.922650318,581.0
32.948910883,589.0
32.975171448,555.0
33.001432013,568.0
33.027692578,530.0
33.053953143,610.0
33.080213708,560.0
33.106474273,578.0
33.132734838,566.0
33.158995403,577.0
33.185255968,525.0
33.211516533,555.0
33.237777098,594.0
33.264037663,563.0
33.290298228,604.0
33.316558793,546.0
33.342819358,567.0
33.369079923,590.0
33.395340488,533.0
33.421601053,608.0
33.447861618,551.0
33.474122183,547.0
33.500382748,502.0
33.526643313,526.0
33.552903878,567.0
33.579164443,582.0
33.605425008,600.0
33.631685573,567.0
33.657946138,552.0
33.684206703,531.0
33.710467268,598.0
33.736727833,511.0
33.762988398,536.0
33.789248963,523.0
33.815509528,564.0
33.841770093,544.0
33.868030658,549.0
33.894291223,557.0
33.920551789,546.0
33.946812354,532.0
33.973072919,552.0
33.999333484,524.0
34.025594049,524.0
34.051854614,564.0
34.078115179,562.0
34.104375744,537.0
34.130636309,578.0
34.156896874,588.0
34.183157439,533.0
34.209418004,558.0
34.235678569,537.0
34.261939134,569.0
34.288199699,543.0
34.314460264,523.0
34.340720829,561.0
34.366981394,515.0
34.393241959,517.0
34.419502524,542.0
34.445763089,533.0
34.472023654,566.0
34.498284219,576.0
34.524544784,524.0
34.550805349,550.0
34.577065914,524.0
34.603326479,506.0
34.629587044,537.0
34.655847609,502.0
34.682108174,522.0
34.708368739,519.0
34.734629304,541.0
34.760889869,519.0
34.787150434,549.0
34.813410999,542.0
34.839671564,587.0
34.865932129,516.0
34.892192694,537.0
34.918453259,529.0
34.944713824,540.0
34.970974389,502.0
34.997234954,491.0
35.023495519,511.0
35.049756084,540.0
35.076016649,509.0
35.102277214,532.0
35.128537779,576.0
35.154798344,544.0
35.181058909,544.0
35.207319474,512.0
35.233580039,573.0
35.259840604,510.0
35.286101169,482.0
35.312361734,556.0
35.338622299,552.0
35.364882864,491.0
35.391143429,530.0
35.417403994,560.0
35.443664559,581.0
35.469925124,534.0
35.496185689,546.0
35.522446254,519.0
35.548706819,476.0
35.574967384,524.0
35.601227949,537.0
35.627488514,574.0
35.653749079,515.0
35.680009644,519.0
35.706270209,504.0
35.732530774,542.0
35.758791339,497.0
35.785051904,548.0
35.811312469,523.0
35.837573034,532.0
35.863833599,527.0
35.890094164,527.0
35.916354729,522.0
35.942615294,534.0
35.968875859,581.0
35.995136424,536.0
36.021396989,527.0
36.047657554,522.0
36.073918119,514.0
36.100178684,521.0
36.126439249,565.0
36.152699814,512.0
36.178960379,519.0
36.205220944,527.0
36.231481509,525.0
36.257742074,494.0
36.284002639,535.0
36.310263204,548.0
36.336523769,541.0
36.362784334,523.0
36.389044899,560.0
36.415305464,465.0
36.441566029,520.0
36.467826594,534.0
36.494087159,545.0
36.520347724,525.0
36.546608289,568.0
36.572868854,518.0
36.599129419,537.0
36.625389984,574.0
36.651650549,559.0
36.677911114,526.0
36.704171679,520.0
36.730432244,517.0
36.756692809,534.0
36.782953374,522.0
36.809213939,531.0
36.835474504,551.0
36.861735069,547.0
36.887995634,536.0
36.914256199,523.0
36.940516764,545.0
36.966777329,551.0
36.993037894,537.0
37.019298459,493.0
37.045559024,538.0
37.071819589,531.0
37.098080154,494.0
37.124340719,566.0
37.150601284,533.0
37.176861849,516.0
37.203122414,555.0
37.229382979,541.0
37.255643544,533.0
37.281904109,549.0
37.308164674,509.0
37.334425240,552.0
37.360685805,565.0
37.386946370,518.0
37.413206935,510.0
37.439467500,544.0
37.465728065,530.0
37.491988630,524.0
37.518249195,536.0
37.544509760,547.0
37.570770325,530.0
37.597030890,565.0
37.623291455,523.0
37.649552020,545.0
37.675812585,572.0
37.702073150,542.0
37.728333715,549.0
37.754594280,570.0
37.780854845,529.0
37.807115410,550.0
37.833375975,514.0
37.859636540,548.0
37.885897105,566.0
37.912157670,534.0
37.938418235,572.0
37.964678800,579.0
37.990939365,597.0
38.017199930,519.0
38.043460495,610.0
38.069721060,610.0
38.095981625,551.0
38.122242190,574.0
38.148502755,579.0
38.174763320,502.0
38.201023885,598.0
38.227284450,582.0
38.253545015,589.0
38.279805580,536.0
38.306066145,576.0
38.332326710,523.0
38.358587275,555.0
38.384847840,557.0
38.411108405,572.0
38.437368970,564.0
38.463629535,639.0
38.489890100,580.0
38.516150665,516.0
38.542411230,617.0
38.568671795,632.0
38.594932360,619.0
38.621192925,651.0
38.647453490,591.0
38.673714055,633.0
38.699974620,570.0
38.726235185,601.0
38.752495750,577.0
38.778756315,594.0
38.805016880,608.0
38.831277445,586.0
38.857538010,611.0
38.883798575,665.0
38.910059140,616.0
38.936319705,639.0
38.962580270,610.0
38.988840835,638.0
39.015101400,646.0
39.041361965,631.0
39.067622530,605.0
39.093883095,650.0
39.120143660,646.0
39.146404225,667.0
39.172664790,607.0
39.198925355,660.0
39.225185920,683.0
39.251446485,678.0
39.277707050,667.0
39.303967615,652.0
39.330228180,675.0
39.356488745,646.0
39.382749310,636.0
39.409009875,684.0
39.435270440,713.0
39.461531005,688.0
39.487791570,785.0
39.514052135,677.0
39.540312700,718.0
39.566573265,721.0
39.592833830,736.0
39.619094395,792.0
39.645354960,741.0
39.671615525,732.0
39.697876090,775.0
39.724136655,811.0
39.750397220,749.0
39.776657785,817.0
39.802918350,790.0
39.829178915,781.0
39.855439480,865.0
39.881700045,861.0
39.907960610,842.0
39.934221175,868.0
39.960481740,902.0
39.986742305,917.0
40.013002870,954.0
40.039263435,936.0
40.065524000,943.0
40.091784565,982.0
40.118045130,924.0
40.144305695,1039.0
40.170566260,1039.0
40.196826825,1054.0
40.223087390,1030.0
40.249347955,1090.0
40.275608520,1149.0
40.301869085,1105.0
40.328129650,1193.0
40.354390215,1213.0
40.380650780,1220.0
40.406911345,1246.0
40.433171910,1196.0
40.459432475,1256.0
40.485693040,1273.0
40.511953605,1236.0
40.538214170,1307.0
40.564474735,1352.0
40.590735300,1327.0
40.616995865,1286.0
40.643256430,1347.0
40.669516995,1319.0
40.695777560,1362.0
40.722038126,1357.0
40.748298691,1340.0
40.774559256,1353.0
40.800819821,1353.0
40.827080386,1347.0
40.853340951,1341.0
40.879601516,1388.0
40.905862081,1393.0
40.932122646,1372.0
40.958383211,1352.0
40.984643776,1386.0
41.010904341,1329.0
41.037164906,1320.0
41.063425471,1288.0
41.089686036,1397.0
41.115946601,1334.0
41.142207166,1338.0
41.168467731,1355.0
41.194728296,1339.0
41.220988861,1288.0
41.247249426,1370.0
41.273509991,1354.0
41.299770556,1349.0
41.326031121,1334.0
41.352291686,1320.0
41.378552251,1359.0
41.404812816,1364.0
41.431073381,1263.0
41.457333946,1312.0
41.483594511,1297.0
41.509855076,1298.0
41.536115641,1351.0
41.562376206,1295.0
41.588636771,1292.0
41.614897336,1259.0
41.641157901,1219.0
41.667418466,1293.0
41.693679031,1306.0
41.719939596,1261.0
41.746200161,1187.0
41.772460726,1273.0
41.798721291,1215.0
41.824981856,1270.0
41.851242421,1271.0
41.877502986,1249.0
41.903763551,1242.0
41.930024116,1234.0
41.956284681,1269.0
41.982545246,1249.0
42.008805811,1264.0
42.035066376,1226.0
42.061326941,1218.0
42.087587506,1159.0
42.113848071,1229.0
42.140108636,1220.0
42.166369201,1269.0
42.192629766,1166.0
42.218890331,1204.0
42.245150896,1181.0
42.271411461,1182.0
42.297672026,1203.0
42.323932591,1209.0
42.350193156,1179.0
42.376453721,1143.0
42.402714286,1093.0
42.428974851,1172.0
42.455235416,1093.0
42.481495981,1110.0
42.507756546,1160.0
42.534017111,1117.0
42.560277676,1084.0
42.586538241,1106.0
42.612798806,1164.0
42.639059371,1102.0
42.665319936,1116.0
42.691580501,1125.0
42.717841066,1083.0
42.744101631,1055.0
42.770362196,1085.0
42.796622761,1024.0
42.822883326,1035.0
42.849143891,1048.0
42.875404456,1004.0
42.901665021,1018.0
42.927925586,1013.0
42.954186151,1082.0
42.980446716,1028.0
43.006707281,1060.0
43.032967846,992.0
43.059228411,1080.0
43.085488976,1044.0
43.111749541,1020.0
43.138010106,937.0
43.164270671,1011.0
43.190531236,998.0
43.216791801,1030.0
43.243052366,1040.0
43.269312931,1003.0
43.295573496,923.0
43.321834061,914.0
43.348094626,948.0
43.374355191,947.0
43.400615756,1007.0
43.426876321,929.0
43.453136886,906.0
43.479397451,926.0
43.505658016,945.0
43.531918581,920.0
43.558179146,870.0
43.584439711,903.0
43.610700276,916.0
43.636960841,908.0
43.663221406,897.0
43.689481971,934.0
43.715742536,883.0
43.742003101,857.0
43.768263666,850.0
43.794524231,912.0
43.820784796,840.0
43.847045361,878.0
43.873305926,851.0
43.899566491,818.0
43.925827056,868.0
43.952087621,878.0
43.978348186,846.0
44.004608751,834.0
44.030869316,823.0
44.057129881,822.0
44.083390446,837.0
44.109651011,797.0
44.135911577,810.0
44.162172142,804.0
44.188432707,827.0
44.214693272,805.0
44.240953837,762.0
44.267214402,852.0
44.293474967,776.0
44.319735532,798.0
44.345996097,782.0
44.372256662,837.0
44.398517227,843.0
44.424777792,808.0
44.451038357,758.0
44.477298922,755.0
44.503559487,781.0
44.529820052,794.0
44.556080617,791.0
44.582341182,808.0
44.608601747,807.0
44.634862312,774.0
44.661122877,730.0
44.687383442,749.0
44.713644007,723.0
44.739904572,741.0
44.766165137,775.0
44.792425702,716.0
44.818686267,667.0
44.844946832,665.0
44.871207397,715.0
44.897467962,634.0
44.923728527,660.0
44.949989092,682.0
44.976249657,752.0
45.002510222,659.0
45.028770787,678.0
45.055031352,684.0
45.081291917,693.0
45.107552482,699.0
45.133813047,737.0
45.160073612,625.0
45.186334177,690.0
45.212594742,678.0
45.238855307,672.0
45.265115872,655.0
45.291376437,651.0
45.317637002,634.0
45.343897567,642.0
45.370158132,639.0
45.396418697,705.0
45.422679262,658.0
45.448939827,676.0
45.475200392,639.0
45.501460957,670.0
45.527721522,659.0
45.553982087,670.0
45.580242652,591.0
45.606503217,617.0
45.632763782,623.0
45.659024347,667.0
45.685284912,626.0
45.711545477,666.0
45.737806042,625.0
45.764066607,608.0
45.790327172,597.0
45.816587737,599.0
45.842848302,596.0
45.869108867,593.0
45.895369432,632.0
45.921629997,653.0
45.947890562,612.0
45.974151127,582.0
46.000411692,598.0
46.026672257,595.0
46.052932822,579.0
46.079193387,588.0
46.105453952,554.0
46.131714517,608.0
46.157975082,603.0
46.184235647,546.0
46.210496212,571.0
46.236756777,538.0
46.263017342,658.0
46.289277907,610.0
46.315538472,602.0
46.341799037,595.0
46.368059602,581.0
46.394320167,581.0
46.420580732,544.0
46.446841297,544.0
46.473101862,544.0
46.499362427,575.0
46.525622992,609.0
46.551883557,581.0
46.578144122,538.0
46.604404687,555.0
46.630665252,575.0
46.656925817,540.0
46.683186382,516.0
46.709446947,515.0
46.735707512,540.0
46.761968077,530.0
46.788228642,526.0
46.814489207,580.0
46.840749772,530.0
46.867010337,566.0
46.893270902,492.0
46.919531467,558.0
46.945792032,550.0
46.972052597,521.0
46.998313162,514.0
47.024573727,499.0
47.050834292,499.0
47.077094857,516.0
47.103355422,550.0
47.129615987,554.0
47.155876552,574.0
47.182137117,546.0
47.208397682,535.0
47.234658247,520.0
47.260918812,524.0
47.287179377,497.0
47.313439942,469.0
47.339700507,492.0
47.365961072,553.0
47.392221637,468.0
47.418482202,513.0
47.444742767,535.0
47.471003332,503.0
47.497263897,489.0
47.523524463,533.0
47.549785028,519.0
47.576045593,482.0
47.602306158,487.0
47.628566723,488.0
47.654827288,510.0
47.681087853,477.0
47.707348418,501.0
47.733608983,508.0
47.759869548,495.0
47.786130113,501.0
47.812390678,462.0
47.838651243,447.0
47.864911808,486.0
47.891172373,472.0
47.917432938,460.0
47.943693503,439.0
47.969954068,432.0
47.996214633,470.0
48.022475198,485.0
48.048735763,483.0
48.074996328,446.0
48.101256893,446.0
48.127517458,482.0
48.153778023,479.0
48.180038588,452.0
48.206299153,470.0
48.232559718,469.0
48.258820283,452.0
48.285080848,450.0
48.311341413,471.0
48.337601978,485.0
48.363862543,453.0
48.390123108,488.0
48.416383673,460.0
48.442644238,466.0
48.468904803,443.0
48.495165368,465.0
48.521425933,439.0
48.547686498,461.0
48.573947063,486.0
48.600207628,450.0
48.626468193,458.0
48.652728758,447.0
48.678989323,438.0
48.705249888,428.0
48.731510453,459.0
48.757771018,436.0
48.784031583,414.0
48.810292148,445.0
48.836552713,420.0
48.862813278,443.0
48.889073843,470.0
48.915334408,398.0
48.941594973,391.0
48.967855538,431.0
48.994116103,431.0
49.020376668,449.0
49.046637233,448.0
49.072897798,426.0
49.099158363,386.0
49.125418928,411.0
49.151679493,478.0
49.177940058,401.0
49.204200623,443.0
49.230461188,415.0
49.256721753,422.0
49.282982318,415.0
49.309242883,406.0
49.335503448,367.0
49.361764013,456.0
49.388024578,383.0
49.414285143,393.0
49.440545708,392.0
49.466806273,377.0
49.493066838,439.0
49.519327403,407.0
49.545587968,415.0
49.571848533,398.0
49.598109098,428.0
49.624369663,429.0
49.650630228,409.0
49.676890793,385.0
49.703151358,385.0
49.729411923,400.0
49.755672488,416.0
49.781933053,403.0
49.808193618,399.0
49.834454183,368.0
49.860714748,372.0
49.886975313,377.0
49.913235878,377.0
49.939496443,350.0
49.965757008,410.0
49.992017573,384.0
50.018278138,367.0
50.044538703,383.0
50.070799268,414.0
50.097059833,393.0
50.123320398,429.0
50.149580963,353.0
50.175841528,375.0
50.202102093,385.0
50.228362658,380.0
50.254623223,370.0
50.280883788,378.0
50.307144353,394.0
50.333404918,370.0
50.359665483,389.0
50.385926048,392.0
50.412186613,390.0
50.438447178,415.0
50.464707743,357.0
50.490968308,389.0
50.517228873,366.0
50.543489438,415.0
50.569750003,361.0
50.596010568,372.0
50.622271133,334.0
50.648531698,407.0
50.674792263,370.0
50.701052828,409.0
50.727313393,381.0
50.753573958,363.0
50.779834523,377.0
50.806095088,427.0
50.832355653,356.0
50.858616218,363.0
50.884876783,351.0
50.911137349,391.0
50.937397914,345.0
50.963658479,389.0
50.989919044,385.0
51.016179609,381.0
51.042440174,372.0
51.068700739,347.0
51.094961304,359.0
51.121221869,360.0
51.147482434,372.0
51.173742999,347.0
51.200003564,380.0
51.226264129,348.0
51.252524694,334.0
51.278785259,345.0
51.305045824,336.0
51.331306389,340.0
51.357566954,348.0
51.383827519,342.0
51.410088084,356.0
51.436348649,341.0
51.462609214,334.0
51.488869779,350.0
51.515130344,352.0
51.541390909,385.0
51.567651474,344.0
51.593912039,343.0
51.620172604,402.0
51.646433169,357.0
51.672693734,333.0
51.698954299,369.0
51.725214864,373.0
51.751475429,382.0
51.777735994,327.0
51.803996559,384.0
51.830257124,370.0
51.856517689,345.0
51.882778254,358.0
51.909038819,325.0
51.935299384,330.0
51.961559949,340.0
51.987820514,345.0
52.014081079,386.0
52.040341644,369.0
52.066602209,356.0
52.092862774,360.0
52.119123339,380.0
52.145383904,347.0
52.171644469,348.0
52.197905034,326.0
52.224165599,334.0
52.250426164,334.0
52.276686729,309.0
52.302947294,341.0
52.329207859,333.0
52.355468424,356.0
52.381728989,368.0
52.407989554,336.0
52.434250119,331.0
52.460510684,350.0
52.486771249,360.0
52.513031814,359.0
52.539292379,340.0
52.565552944,343.0
52.591813509,345.0
52.618074074,355.0
52.644334639,344.0
52.670595204,299.0
52.696855769,369.0
52.723116334,342.0
52.749376899,367.0
52.775637464,318.0
52.801898029,380.0
52.828158594,328.0
52.854419159,345.0
52.880679724,331.0
52.906940289,353.0
52.933200854,337.0
52.959461419,344.0
52.985721984,329.0
53.011982549,299.0
53.038243114,358.0
53.064503679,315.0
53.090764244,369.0
53.117024809,359.0
53.143285374,316.0
53.169545939,336.0
53.195806504,362.0
53.222067069,342.0
53.248327634,379.0
53.274588199,333.0
53.300848764,327.0
53.327109329,338.0
53.353369894,378.0
53.379630459,345.0
53.405891024,363.0
53.432151589,347.0
53.458412154,338.0
53.484672719,328.0
53.510933284,335.0
53.537193849,338.0
53.563454414,317.0
53.589714979,342.0
53.615975544,346.0
53.642236109,343.0
53.668496674,331.0
53.694757239,346.0
53.721017804,323.0
53.747278369,332.0
53.773538934,349.0
53.799799499,317.0
53.826060064,304.0
53.852320629,331.0
53.878581194,323.0
53.904841759,308.0
53.931102324,380.0
53.957362889,376.0
53.983623454,335.0
54.009884019,291.0
54.036144584,355.0
54.062405149,344.0
54.088665714,332.0
54.114926279,346.0
54.141186844,300.0
54.167447409,328.0
54.193707974,307.0
54.219968539,322.0
54.246229104,334.0
54.272489669,340.0
54.298750234,339.0
54.325010800,350.0
54.351271365,328.0
54.377531930,310.0
54.403792495,376.0
54.430053060,321.0
54.456313625,357.0
54.482574190,321.0
54.508834755,313.0
54.535095320,332.0
54.561355885,331.0
54.587616450,371.0
54.613877015,319.0
54.640137580,320.0
54.666398145,336.0
54.692658710,306.0
54.718919275,368.0
54.745179840,354.0
54.771440405,313.0
54.797700970,295.0
54.823961535,314.0
54.850222100,319.0
54.876482665,326.0
54.902743230,363.0
54.929003795,336.0
54.955264360,353.0
54.981524925,331.0
55.007785490,338.0
55.034046055,358.0
55.060306620,310.0
55.086567185,308.0
55.112827750,314.0
55.139088315,315.0
55.165348880,312.0
55.191609445,315.0
55.217870010,321.0
55.244130575,349.0
55.270391140,350.0
55.296651705,299.0
55.322912270,351.0
55.349172835,306.0
55.375433400,336.0
55.401693965,321.0
55.427954530,290.0
55.454215095,295.0
55.480475660,339.0
55.506736225,321.0
55.532996790,309.0
55.559257355,324.0
55.585517920,358.0
55.611778485,310.0
55.638039050,305.0
55.664299615,309.0
55.690560180,337.0
55.716820745,342.0
55.743081310,353.0
55.769341875,312.0
55.795602440,288.0
55.821863005,320.0
55.848123570,315.0
55.874384135,311.0
55.900644700,318.0
55.926905265,375.0
55.953165830,307.0
55.979426395,331.0
56.005686960,324.0
56.031947525,325.0
56.058208090,306.0
56.084468655,295.0
56.110729220,379.0
56.136989785,331.0
56.163250350,352.0
56.189510915,291.0
56.215771480,300.0
56.242032045,310.0
56.268292610,319.0
56.294553175,349.0
56.320813740,340.0
56.347074305,346.0
56.373334870,365.0
56.399595435,320.0
56.425856000,347.0
56.452116565,308.0
56.478377130,321.0
56.504637695,327.0
56.530898260,293.0
56.557158825,330.0
56.583419390,326.0
56.609679955,320.0
56.635940520,332.0
56.662201085,315.0
56.688461650,337.0
56.714722215,315.0
56.740982780,339.0
56.767243345,324.0
56.793503910,345.0
56.819764475,307.0
56.846025040,322.0
56.872285605,324.0
56.898546170,323.0
56.924806735,309.0
56.951067300,324.0
56.977327865,334.0
57.003588430,329.0
57.029848995,301.0
57.056109560,325.0
57.082370125,358.0
57.108630690,303.0
57.134891255,351.0
57.161151820,291.0
57.187412385,312.0
57.213672950,346.0
57.239933515,330.0
57.266194080,353.0
57.292454645,335.0
57.318715210,305.0
57.344975775,358.0
57.371236340,332.0
57.397496905,315.0
57.423757470,330.0
57.450018035,328.0
57.476278600,334.0
57.502539165,347.0
57.528799730,330.0
57.555060295,316.0
57.581320860,278.0
57.607581425,263.0
57.633841990,380.0
57.660102555,333.0
57.686363120,300.0
57.712623686,332.0
57.738884251,328.0
57.765144816,270.0
57.791405381,323.0
57.817665946,310.0
57.843926511,315.0
57.870187076,328.0
57.896447641,296.0
57.922708206,314.0
57.948968771,323.0
57.975229336,311.0
58.001489901,333.0
58.027750466,321.0
58.054011031,319.0
58.080271596,356.0
58.106532161,318.0
58.132792726,275.0
58.159053291,305.0
58.185313856,285.0
58.211574421,322.0
58.237834986,283.0
58.264095551,302.0
58.290356116,346.0
58.316616681,326.0
58.342877246,321.0
58.369137811,315.0
58.395398376,301.0
58.421658941,321.0
58.447919506,332.0
58.474180071,287.0
58.500440636,326.0
58.526701201,374.0
58.552961766,308.0
58.579222331,288.0
58.605482896,281.0
58.631743461,302.0
58.658004026,327.0
58.684264591,309.0
58.710525156,314.0
58.736785721,325.0
58.763046286,320.0
58.789306851,316.0
58.815567416,301.0
58.841827981,316.0
58.868088546,343.0
58.894349111,320.0
58.920609676,304.0
58.946870241,308.0
58.973130806,287.0
58.999391371,316.0
59.025651936,316.0
59.051912501,314.0
59.078173066,301.0
59.104433631,310.0
59.130694196,311.0
59.156954761,293.0
59.183215326,346.0
59.209475891,304.0
59.235736456,293.0
59.261997021,300.0
59.288257586,329.0
59.314518151,300.0
59.340778716,288.0
59.367039281,333.0
59.393299846,302.0
59.419560411,285.0
59.445820976,297.0
59.472081541,324.0
59.498342106,284.0
59.524602671,285.0
59.550863236,296.0
59.577123801,295.0
59.603384366,303.0
59.629644931,294.0
59.655905496,329.0
59.682166061,306.0
59.708426626,303.0
59.734687191,312.0
59.760947756,302.0
59.787208321,314.0
59.813468886,319.0
59.839729451,314.0
59.865990016,316.0
59.892250581,362.0
59.918511146,349.0
59.944771711,350.0
59.971032276,307.0
59.997292841,282.0
60.023553406,326.0
60.049813971,314.0
60.076074536,299.0
60.102335101,305.0
60.128595666,291.0
60.154856231,348.0
60.181116796,302.0
60.207377361,357.0
60.233637926,349.0
60.259898491,300.0
60.286159056,300.0
60.312419621,333.0
60.338680186,320.0
60.364940751,300.0
60.391201316,282.0
60.417461881,291.0
60.443722446,306.0
60.469983011,337.0
60.496243576,322.0
60.522504141,321.0
60.548764706,313.0
60.575025271,321.0
60.601285836,314.0
60.627546401,298.0
60.653806966,310.0
60.680067531,334.0
60.706328096,321.0
60.732588661,293.0
60.758849226,292.0
60.785109791,306.0
60.811370356,313.0
60.837630921,318.0
60.863891486,325.0
60.890152051,292.0
60.916412616,315.0
60.942673181,311.0
60.968933746,311.0
60.995194311,326.0
61.021454876,293.0
61.047715441,279.0
61.073976006,316.0
61.100236571,332.0
61.126497137,309.0
61.152757702,352.0
61.179018267,313.0
61.205278832,309.0
61.231539397,301.0
61.257799962,281.0
61.284060527,317.0
61.310321092,313.0
61.336581657,302.0
61.362842222,325.0
61.389102787,299.0
61.415363352,308.0
61.441623917,293.0
61.467884482,308.0
61.494145047,308.0
61.520405612,297.0
61.546666177,316.0
61.572926742,268.0
61.599187307,326.0
61.625447872,310.0
61.651708437,303.0
61.677969002,292.0
61.704229567,342.0
61.730490132,330.0
61.756750697,302.0
61.783011262,321.0
61.809271827,310.0
61.835532392,324.0
61.861792957,352.0
61.888053522,335.0
61.914314087,335.0
61.940574652,315.0
61.966835217,327.0
61.993095782,317.0
62.019356347,300.0
62.045616912,290.0
62.071877477,326.0
62.098138042,285.0
62.124398607,279.0
62.150659172,312.0
62.176919737,315.0
62.203180302,311.0
62.229440867,350.0
62.255701432,283.0
62.281961997,259.0
62.308222562,303.0
62.334483127,315.0
62.360743692,325.0
62.387004257,283.0
62.413264822,311.0
62.439525387,301.0
62.465785952,322.0
62.492046517,306.0
62.518307082,315.0
62.544567647,295.0
62.570828212,306.0
62.597088777,306.0
62.623349342,300.0
62.649609907,324.0
62.675870472,294.0
62.702131037,297.0
62.728391602,313.0
62.754652167,326.0
62.780912732,349.0
62.807173297,314.0
62.833433862,328.0
62.859694427,371.0
62.885954992,283.0
62.912215557,310.0
62.938476122,292.0
62.964736687,330.0
62.990997252,297.0
63.017257817,319.0
63.043518382,305.0
63.069778947,309.0
63.096039512,301.0
63.122300077,299.0
63.148560642,288.0
63.174821207,300.0
63.201081772,304.0
63.227342337,293.0
63.253602902,296.0
63.279863467,300.0
63.306124032,301.0
63.332384597,312.0
63.358645162,305.0
63.384905727,271.0
63.411166292,295.0
63.437426857,292.0
63.463687422,277.0
63.489947987,284.0
63.516208552,291.0
63.542469117,290.0
63.568729682,262.0
63.594990247,299.0
63.621250812,296.0
63.647511377,313.0
63.673771942,267.0
63.700032507,295.0
63.726293072,338.0
63.752553637,285.0
63.778814202,287.0
63.805074767,317.0
63.831335332,272.0
63.857595897,261.0
63.883856462,311.0
63.910117027,301.0
63.936377592,269.0
63.962638157,304.0
63.988898722,335.0
64.015159287,308.0
64.041419852,313.0
64.067680417,304.0
64.093940982,280.0
64.120201547,279.0
64.146462112,303.0
64.172722677,323.0
64.198983242,281.0
64.225243807,274.0
64.251504372,296.0
64.277764937,297.0
64.304025502,281.0
64.330286067,276.0
64.356546632,317.0
64.382807197,298.0
64.409067762,303.0
64.435328327,313.0
64.461588892,317.0
64.487849457,311.0
64.514110023,273.0
64.540370588,293.0
64.566631153,258.0
64.592891718,301.0
64.619152283,275.0
64.645412848,264.0
64.671673413,289.0
64.697933978,312.0
64.724194543,290.0
64.750455108,261.0
64.776715673,308.0
64.802976238,306.0
64.829236803,312.0
64.855497368,305.0
64.881757933,301.0
64.908018498,293.0
64.934279063,298.0
64.960539628,286.0
64.986800193,304.0
65.013060758,281.0
65.039321323,254.0
65.065581888,291.0
65.091842453,290.0
65.118103018,255.0
65.144363583,279.0
65.170624148,291.0
65.196884713,289.0
65.223145278,279.0
65.249405843,261.0
65.275666408,254.0
65.301926973,315.0
65.328187538,279.0
65.354448103,287.0
65.380708668,276.0
65.406969233,282.0
65.433229798,261.0
65.459490363,255.0
65.485750928,255.0
65.512011493,248.0
65.538272058,288.0
65.564532623,299.0
65.590793188,278.0
65.617053753,282.0
65.643314318,268.0
65.669574883,302.0
65.695835448,256.0
65.722096013,244.0
65.748356578,259.0
65.774617143,261.0
65.800877708,300.0
65.827138273,252.0
65.853398838,290.0
65.879659403,262.0
65.905919968,274.0
65.932180533,268.0
65.958441098,255.0
65.984701663,282.0
66.010962228,251.0
66.037222793,237.0
66.063483358,267.0
66.089743923,275.0
66.116004488,259.0
66.142265053,292.0
66.168525618,288.0
66.194786183,294.0
66.221046748,280.0
66.247307313,292.0
66.273567878,273.0
66.299828443,245.0
66.326089008,216.0
66.352349573,256.0
66.378610138,282.0
66.404870703,254.0
66.431131268,272.0
66.457391833,283.0
66.483652398,291.0
66.509912963,280.0
66.536173528,283.0
66.562434093,259.0
66.588694658,294.0
66.614955223,300.0
66.641215788,278.0
66.667476353,288.0
66.693736918,280.0
66.719997483,282.0
66.746258048,269.0
66.772518613,254.0
66.798779178,288.0
66.825039743,265.0
66.851300308,287.0
66.877560873,302.0
66.903821438,283.0
66.930082003,268.0
66.956342568,262.0
66.982603133,273.0
67.008863698,270.0
67.035124263,276.0
67.061384828,277.0
67.087645393,274.0
67.113905958,293.0
67.140166523,245.0
67.166427088,289.0
67.192687653,267.0
67.218948218,256.0
67.245208783,253.0
67.271469348,262.0
67.297729913,268.0
67.323990478,268.0
67.350251043,249.0
67.376511608,262.0
67.402772173,292.0
67.429032738,276.0
67.455293303,254.0
67.481553868,260.0
67.507814433,313.0
67.534074998,272.0
67.560335563,278.0
67.586596128,267.0
67.612856693,269.0
67.639117258,259.0
67.665377823,277.0
67.691638388,272.0
67.717898953,276.0
67.744159518,291.0
67.770420083,269.0
67.796680648,260.0
67.822941213,236.0
67.849201778,244.0
67.875462343,240.0
67.901722909,272.0
67.927983474,255.0
67.954244039,236.0
67.980504604,270.0
68.006765169,253.0
68.033025734,305.0
68.059286299,248.0
68.085546864,235.0
68.111807429,260.0
68.138067994,270.0
68.164328559,274.0
68.190589124,227.0
68.216849689,267.0
68.243110254,282.0
68.269370819,248.0
68.295631384,263.0
68.321891949,295.0
68.348152514,250.0
68.374413079,262.0
68.400673644,264.0
68.426934209,292.0
68.453194774,254.0
68.479455339,260.0
68.505715904,265.0
68.531976469,209.0
68.558237034,283.0
68.584497599,302.0
68.610758164,255.0
68.637018729,258.0
68.663279294,232.0
68.689539859,260.0
68.715800424,287.0
68.742060989,241.0
68.768321554,261.0
68.794582119,260.0
68.820842684,282.0
68.847103249,252.0
68.873363814,293.0
68.899624379,251.0
68.925884944,269.0
68.952145509,259.0
68.978406074,251.0
69.004666639,267.0
69.030927204,254.0
69.057187769,282.0
69.083448334,295.0
69.109708899,257.0
69.135969464,255.0
69.162230029,277.0
69.188490594,287.0
69.214751159,259.0
69.241011724,239.0
69.267272289,247.0
69.293532854,265.0
69.319793419,243.0
69.346053984,243.0
69.372314549,263.0
69.398575114,272.0
69.424835679,256.0
69.451096244,286.0
69.477356809,254.0
69.503617374,251.0
69.529877939,282.0
69.556138504,264.0
69.582399069,267.0
69.608659634,248.0
69.634920199,281.0
69.661180764,258.0
69.687441329,261.0
69.713701894,250.0
69.739962459,267.0
69.766223024,243.0
69.792483589,234.0
69.818744154,268.0
69.845004719,240.0
69.871265284,293.0
69.897525849,292.0
69.923786414,278.0
69.950046979,249.0
69.976307544,254.0
70.002568109,266.0
70.028828674,277.0
70.055089239,243.0
70.081349804,222.0
70.107610369,269.0
70.133870934,263.0
70.160131499,251.0
70.186392064,247.0
70.212652629,308.0
70.238913194,225.0
70.265173759,272.0
70.291434324,268.0
70.317694889,283.0
70.343955454,241.0
70.370216019,229.0
70.396476584,253.0
70.422737149,241.0
70.448997714,235.0
70.475258279,262.0
70.501518844,298.0
70.527779409,243.0
70.554039974,230.0
70.580300539,247.0
70.606561104,274.0
70.632821669,236.0
70.659082234,271.0
70.685342799,255.0
70.711603364,262.0
70.737863929,266.0
70.764124494,236.0
70.790385059,262.0
70.816645624,251.0
70.842906189,253.0
70.869166754,275.0
70.895427319,259.0
70.921687884,274.0
70.947948449,259.0
70.974209014,230.0
71.000469579,267.0
71.026730144,275.0
71.052990709,255.0
71.079251274,254.0
71.105511839,258.0
71.131772404,271.0
71.158032969,284.0
71.184293534,254.0
71.210554099,255.0
71.236814664,283.0
71.263075229,277.0
71.289335794,298.0
71.315596360,280.0
71.341856925,269.0
71.368117490,243.0
71.394378055,272.0
71.420638620,294.0
71.446899185,246.0
71.473159750,258.0
71.499420315,276.0
71.525680880,263.0
71.551941445,294.0
71.578202010,252.0
71.604462575,260.0
71.630723140,245.0
71.656983705,275.0
71.683244270,255.0
71.709504835,269.0
71.735765400,285.0
71.762025965,240.0
71.788286530,283.0
71.814547095,252.0
71.840807660,247.0
71.867068225,271.0
71.893328790,263.0
71.919589355,272.0
71.945849920,279.0
71.972110485,264.0
71.998371050,244.0
72.024631615,273.0
72.050892180,261.0
72.077152745,251.0
72.103413310,277.0
72.129673875,254.0
72.155934440,268.0
72.182195005,283.0
72.208455570,259.0
72.234716135,293.0
72.260976700,270.0
72.287237265,269.0
72.313497830,309.0
72.339758395,276.0
72.366018960,291.0
72.392279525,255.0
72.418540090,284.0
72.444800655,288.0
72.471061220,280.0
72.497321785,299.0
72.523582350,325.0
72.549842915,269.0
72.576103480,295.0
72.602364045,300.0
72.628624610,291.0
72.654885175,283.0
72.681145740,310.0
72.707406305,307.0
72.733666870,306.0
72.759927435,275.0
72.786188000,290.0
72.812448565,325.0
72.838709130,295.0
72.864969695,319.0
72.891230260,322.0
72.917490825,347.0
72.943751390,323.0
72.970011955,294.0
72.996272520,337.0
73.022533085,326.0
73.048793650,290.0
73.075054215,342.0
73.101314780,366.0
73.127575345,338.0
73.153835910,352.0
73.180096475,353.0
73.206357040,359.0
73.232617605,328.0
73.258878170,306.0
73.285138735,336.0
73.311399300,352.0
73.337659865,319.0
73.363920430,366.0
73.390180995,333.0
73.416441560,362.0
73.442702125,335.0
73.468962690,343.0
73.495223255,414.0
73.521483820,368.0
73.547744385,364.0
73.574004950,360.0
73.600265515,335.0
73.626526080,363.0
73.652786645,346.0
73.679047210,349.0
73.705307775,361.0
73.731568340,315.0
73.757828905,335.0
73.784089470,346.0
73.810350035,305.0
73.836610600,336.0
73.862871165,349.0
73.889131730,327.0
73.915392295,349.0
73.941652860,346.0
73.967913425,349.0
73.994173990,350.0
74.020434555,345.0
74.046695120,340.0
74.072955685,341.0
74.099216250,297.0
74.125476815,328.0
74.151737380,299.0
74.177997945,304.0
74.204258510,315.0
74.230519075,316.0
74.256779640,314.0
74.283040205,332.0
74.309300770,298.0
74.335561335,310.0
74.361821900,294.0
74.388082465,281.0
74.414343030,288.0
74.440603595,298.0
74.466864160,315.0
74.493124725,252.0
74.519385290,295.0
74.545645855,268.0
74.571906420,304.0
74.598166985,286.0
74.624427550,290.0
74.650688115,285.0
74.676948680,275.0
74.703209246,264.0
74.729469811,289.0
74.755730376,262.0
74.781990941,250.0
74.808251506,290.0
74.834512071,253.0
74.860772636,278.0
74.887033201,316.0
74.913293766,292.0
74.939554331,262.0
74.965814896,300.0
74.992075461,278.0
75.018336026,323.0
75.044596591,308.0
75.070857156,296.0
75.097117721,275.0
75.123378286,304.0
75.149638851,277.0
75.175899416,254.0
75.202159981,245.0
75.228420546,277.0
75.254681111,252.0
75.280941676,226.0
75.307202241,271.0
75.333462806,296.0
75.359723371,253.0
75.385983936,285.0
75.412244501,250.0
75.438505066,256.0
75.464765631,293.0
75.491026196,262.0
75.517286761,283.0
75.543547326,293.0
75.569807891,287.0
75.596068456,264.0
75.622329021,245.0
75.648589586,264.0
75.674850151,240.0
75.701110716,270.0
75.727371281,268.0
75.753631846,266.0
75.779892411,264.0
75.806152976,234.0
75.832413541,277.0
75.858674106,254.0
75.884934671,298.0
75.911195236,240.0
75.937455801,272.0
75.963716366,270.0
75.989976931,256.0
76.016237496,254.0
76.042498061,292.0
76.068758626,270.0
76.095019191,246.0
76.121279756,226.0
76.147540321,237.0
76.173800886,266.0
76.200061451,252.0
76.226322016,263.0
76.252582581,197.0
76.278843146,248.0
76.305103711,231.0
76.331364276,244.0
76.357624841,233.0
76.383885406,239.0
76.410145971,264.0
76.436406536,252.0
76.462667101,250.0
76.488927666,250.0
76.515188231,234.0
76.541448796,244.0
76.567709361,258.0
76.593969926,223.0
76.620230491,244.0
76.646491056,220.0
76.672751621,248.0
76.699012186,268.0
76.725272751,241.0
76.751533316,236.0
76.777793881,233.0
76.804054446,264.0
76.830315011,246.0
76.856575576,260.0
76.882836141,233.0
76.909096706,232.0
76.935357271,237.0
76.961617836,219.0
76.987878401,295.0
77.014138966,259.0
77.040399531,229.0
77.066660096,245.0
77.092920661,222.0
77.119181226,228.0
77.145441791,239.0
77.171702356,245.0
77.197962921,266.0
77.224223486,280.0
77.250484051,214.0
77.276744616,234.0
77.303005181,217.0
77.329265746,224.0
77.355526311,217.0
77.381786876,250.0
77.408047441,227.0
77.434308006,262.0
77.460568571,254.0
77.486829136,260.0
77.513089701,257.0
77.539350266,243.0
77.565610831,254.0
77.591871396,222.0
77.618131961,223.0
77.644392526,246.0
77.670653091,236.0
77.696913656,244.0
77.723174221,245.0
77.749434786,258.0
77.775695351,238.0
77.801955916,220.0
77.828216481,241.0
77.854477046,247.0
77.880737611,241.0
77.906998176,249.0
77.933258741,249.0
77.959519306,253.0
77.985779871,241.0
78.012040436,247.0
78.038301001,249.0
78.064561566,269.0
78.090822131,223.0
78.117082697,230.0
78.143343262,216.0
78.169603827,191.0
78.195864392,237.0
78.222124957,276.0
78.248385522,244.0
78.274646087,261.0
78.300906652,220.0
78.327167217,223.0
78.353427782,223.0
78.379688347,251.0
78.405948912,238.0
78.432209477,260.0
78.458470042,208.0
78.484730607,252.0
78.510991172,226.0
78.537251737,228.0
78.563512302,222.0
78.589772867,250.0
78.616033432,239.0
78.642293997,222.0
78.668554562,224.0
78.694815127,224.0
78.721075692,229.0
78.747336257,236.0
78.773596822,232.0
78.799857387,272.0
78.826117952,225.0
78.852378517,265.0
78.878639082,224.0
78.904899647,229.0
78.931160212,236.0
78.957420777,229.0
78.983681342,237.0
79.009941907,224.0
79.036202472,240.0
79.062463037,238.0
79.088723602,231.0
79.114984167,212.0
79.141244732,237.0
79.167505297,248.0
79.193765862,224.0
79.220026427,233.0
79.246286992,244.0
79.272547557,244.0
79.298808122,203.0
79.325068687,227.0
79.351329252,223.0
79.377589817,207.0
79.403850382,225.0
79.430110947,262.0
79.456371512,215.0
79.482632077,217.0
79.508892642,227.0
79.535153207,229.0
79.561413772,230.0
79.587674337,255.0
79.613934902,211.0
79.640195467,238.0
79.666456032,230.0
79.692716597,232.0
79.718977162,244.0
79.745237727,230.0
79.771498292,230.0
79.797758857,222.0
79.824019422,240.0
79.850279987,214.0
79.876540552,227.0
79.902801117,218.0
79.929061682,221.0
79.955322247,245.0
79.981582812,228.0
80.007843377,202.0
80.034103942,228.0
80.060364507,236.0
80.086625072,231.0
80.112885637,243.0
80.139146202,229.0
80.165406767,225.0
80.191667332,244.0
80.217927897,255.0
80.244188462,231.0
80.270449027,205.0
80.296709592,232.0
80.322970157,203.0
80.349230722,224.0
80.375491287,276.0
80.401751852,220.0
80.428012417,244.0
80.454272982,244.0
80.480533547,213.0
80.506794112,225.0
80.533054677,223.0
80.559315242,220.0
80.585575807,247.0
80.611836372,232.0
80.638096937,221.0
80.664357502,229.0
80.690618067,245.0
80.716878632,227.0
80.743139197,233.0
80.769399762,187.0
80.795660327,234.0
80.821920892,217.0
80.848181457,217.0
80.874442022,241.0
80.900702587,236.0
80.926963152,230.0
80.953223717,187.0
80.979484282,230.0
81.005744847,251.0
81.032005412,222.0
81.058265977,222.0
81.084526542,196.0
81.110787107,221.0
81.137047672,237.0
81.163308237,246.0
81.189568802,252.0
81.215829367,200.0
81.242089932,229.0
81.268350497,249.0
81.294611062,198.0
81.320871627,223.0
81.347132192,231.0
81.373392757,203.0
81.399653322,202.0
81.425913887,226.0
81.452174452,212.0
81.478435017,239.0
81.504695583,217.0
81.530956148,235.0
81.557216713,226.0
81.583477278,213.0
81.609737843,218.0
81.635998408,215.0
81.662258973,211.0
81.688519538,210.0
81.714780103,229.0
81.741040668,207.0
81.767301233,220.0
81.793561798,218.0
81.819822363,229.0
81.846082928,240.0
81.872343493,221.0
81.898604058,211.0
81.924864623,210.0
81.951125188,207.0
81.977385753,248.0
82.003646318,207.0
82.029906883,224.0
82.056167448,216.0
82.082428013,224.0
82.108688578,217.0
82.134949143,195.0
82.161209708,214.0
82.187470273,218.0
82.213730838,214.0
82.239991403,225.0
82.266251968,231.0
82.292512533,214.0
82.318773098,212.0
82.345033663,230.0
82.371294228,210.0
82.397554793,243.0
82.423815358,215.0
82.450075923,224.0
82.476336488,220.0
82.502597053,209.0
82.528857618,199.0
82.555118183,220.0
82.581378748,212.0
82.607639313,218.0
82.633899878,239.0
82.660160443,216.0
82.686421008,215.0
82.712681573,206.0
82.738942138,231.0
82.765202703,250.0
82.791463268,214.0
82.817723833,208.0
82.843984398,214.0
82.870244963,227.0
82.896505528,218.0
82.922766093,242.0
82.949026658,208.0
82.975287223,229.0
83.001547788,230.0
83.027808353,211.0
83.054068918,202.0
83.080329483,221.0
83.106590048,225.0
83.132850613,207.0
83.159111178,244.0
83.185371743,228.0
83.211632308,202.0
83.237892873,189.0
83.264153438,221.0
83.290414003,217.0
83.316674568,229.0
83.342935133,211.0
83.369195698,190.0
83.395456263,217.0
83.421716828,190.0
83.447977393,247.0
83.474237958,209.0
83.500498523,213.0
83.526759088,199.0
83.553019653,190.0
83.579280218,221.0
83.605540783,204.0
83.631801348,207.0
83.658061913,200.0
83.684322478,213.0
83.710583043,226.0
83.736843608,184.0
83.763104173,214.0
83.789364738,218.0
83.815625303,203.0
83.841885868,210.0
83.868146433,226.0
83.894406998,206.0
83.920667563,203.0
83.946928128,195.0
83.973188693,207.0
83.999449258,187.0
84.025709823,233.0
84.051970388,212.0
84.078230953,224.0
84.104491518,224.0
84.130752083,229.0
84.157012648,233.0
84.183273213,234.0
84.209533778,194.0
84.235794343,218.0
84.262054908,219.0
84.288315473,217.0
84.314576038,221.0
84.340836603,199.0
84.367097168,218.0
84.393357733,201.0
84.419618298,222.0
84.445878863,212.0
84.472139428,213.0
84.498399993,199.0
84.524660558,223.0
84.550921123,202.0
84.577181688,225.0
84.603442253,226.0
84.629702818,205.0
84.655963383,214.0
84.682223948,219.0
84.708484513,235.0
84.734745078,210.0
84.761005643,208.0
84.787266208,213.0
84.813526773,227.0
84.839787338,221.0
84.866047903,223.0
84.892308469,193.0
84.918569034,217.0
84.944829599,214.0
84.971090164,197.0
84.997350729,195.0
85.023611294,186.0
85.049871859,212.0
85.076132424,218.0
85.102392989,223.0
85.128653554,206.0
85.154914119,206.0
85.181174684,191.0
85.207435249,205.0
85.233695814,201.0
85.259956379,193.0
85.286216944,216.0
85.312477509,191.0
85.338738074,201.0
85.364998639,203.0
85.391259204,209.0
85.417519769,246.0
85.443780334,212.0
85.470040899,204.0
85.496301464,212.0
85.522562029,201.0
85.548822594,210.0
85.575083159,230.0
85.601343724,202.0
85.627604289,217.0
85.653864854,212.0
85.680125419,196.0
85.706385984,192.0
85.732646549,203.0
85.758907114,204.0
85.785167679,234.0
85.811428244,194.0
85.837688809,207.0
85.863949374,214.0
85.890209939,216.0
85.916470504,178.0
85.942731069,213.0
85.968991634,204.0
85.995252199,206.0
86.021512764,216.0
86.047773329,214.0
86.074033894,205.0
86.100294459,186.0
86.126555024,208.0
86.152815589,250.0
86.179076154,188.0
86.205336719,219.0
86.231597284,184.0
86.257857849,215.0
86.284118414,187.0
86.310378979,204.0
86.336639544,216.0
86.362900109,203.0
86.389160674,219.0
86.415421239,208.0
86.441681804,222.0
86.467942369,206.0
86.494202934,237.0
86.520463499,216.0
86.546724064,220.0
86.572984629,194.0
86.599245194,212.0
86.625505759,213.0
86.651766324,230.0
86.678026889,184.0
86.704287454,211.0
86.730548019,192.0
86.756808584,199.0
86.783069149,208.0
86.809329714,234.0
86.835590279,201.0
86.861850844,225.0
86.888111409,199.0
86.914371974,202.0
86.940632539,199.0
86.966893104,206.0
86.993153669,233.0
87.019414234,231.0
87.045674799,248.0
87.071935364,227.0
87.098195929,220.0
87.124456494,218.0
87.150717059,223.0
87.176977624,220.0
87.203238189,245.0
87.229498754,213.0
87.255759319,213.0
87.282019884,212.0
87.308280449,216.0
87.334541014,242.0
87.360801579,248.0
87.387062144,217.0
87.413322709,198.0
87.439583274,222.0
87.465843839,233.0
87.492104404,249.0
87.518364969,210.0
87.544625534,242.0
87.570886099,233.0
87.597146664,229.0
87.623407229,231.0
87.649667794,212.0
87.675928359,233.0
87.702188924,230.0
87.728449489,229.0
87.754710054,213.0
87.780970619,192.0
87.807231184,222.0
87.833491749,212.0
87.859752314,225.0
87.886012879,210.0
87.912273444,218.0
87.938534009,214.0
87.964794574,224.0
87.991055139,223.0
88.017315704,234.0
88.043576269,195.0
88.069836834,232.0
88.096097399,203.0
88.122357964,208.0
88.148618529,207.0
88.174879094,231.0
88.201139659,194.0
88.227400224,201.0
88.253660789,214.0
88.279921354,212.0
88.306181920,223.0
88.332442485,227.0
88.358703050,224.0
88.384963615,216.0
88.411224180,201.0
88.437484745,193.0
88.463745310,212.0
88.490005875,207.0
88.516266440,182.0
88.542527005,175.0
88.568787570,213.0
88.595048135,214.0
88.621308700,209.0
88.647569265,216.0
88.673829830,210.0
88.700090395,228.0
88.726350960,219.0
88.752611525,224.0
88.778872090,230.0
88.805132655,231.0
88.831393220,228.0
88.857653785,212.0
88.883914350,204.0
88.910174915,217.0
88.936435480,234.0
88.962696045,224.0
88.988956610,226.0
89.015217175,211.0
89.041477740,228.0
89.067738305,199.0
89.093998870,206.0
89.120259435,222.0
89.146520000,215.0
89.172780565,231.0
89.199041130,203.0
89.225301695,233.0
89.251562260,181.0
89.277822825,194.0
89.304083390,211.0
89.330343955,218.0
89.356604520,214.0
89.382865085,218.0
89.409125650,221.0
89.435386215,200.0
89.461646780,224.0
89.487907345,240.0
89.514167910,192.0
89.540428475,212.0
89.566689040,206.0
89.592949605,218.0
89.619210170,203.0
89.645470735,207.0
89.671731300,206.0
89.697991865,195.0
89.724252430,209.0
89.750512995,184.0
89.776773560,192.0
89.803034125,198.0
89.829294690,207.0
89.855555255,233.0
89.881815820,227.0
89.908076385,223.0
89.934336950,204.0
89.960597515,209.0
89.986858080,198.0
