[Measurement conditions]
Sample identification,
Comment - 1,"Configuration=Stage for flat samples/holders, Owner=User-1, Creation date=3/27/2015 11:56:23 AM"
Comment - 2,"Goniometer=Theta/Theta; Minimum step size 2Theta:0.0001; Minimum step size Omega:0.0001"
Comment - 3,"Sample stage=Stage for flat samples/holders"
Comment - 4,"Diffractometer system=EMPYREAN"
Comment - 5,"Measurement program=C:\PANalytical\Data Collector\Programs\Powder - Copy.xrdmp, Identifier={BEEA10DD-8FD6-4721-8940-4FBC5A4262A1}"
Comment - 6,"Fine Calibration Offset for 2Theta = -0.0130 deg"
Comment - 7,"Fine Calibration Offset for Omega = -0.0070 deg"
Anode material,Cu
K-Alpha1 wavelength,1.5405980
K-Alpha2 wavelength,1.5444260
Ratio K-Alpha2/K-Alpha1,0.500
Divergence slit,Fixed,0.38mm
Monochromator used,NO
Generator voltage, 40
Tube current, 35
File date and time,24/Jul/2017 16:40
Unit cell,
h k l, 0 0 0
Scan axis,Gonio
Scan range,5.020799997,89.999988363
Scan step size,0.0262606
No. of points, 3236
Scan type,CONTINUOUS
Time per step,18.615
[Scan points]
Angle,Intensity
5.033930280,2021.0
5.060190845,2058.0
5.086451410,1967.0
5.112711975,2060.0
5.138972540,2048.0
5.165233105,1978.0
5.191493670,1998.0
5.217754235,2082.0
5.244014800,2009.0
5.270275365,2047.0
5.296535930,2102.0
5.322796495,1964.0
5.349057060,2007.0
5.375317625,2051.0
5.401578190,1904.0
5.427838755,2042.0
5.454099320,2021.0
5.480359885,2046.0
5.506620450,2053.0
5.532881015,1923.0
5.559141580,1975.0
5.585402145,1936.0
5.611662710,1936.0
5.637923275,2051.0
5.664183840,1948.0
5.690444405,1961.0
5.716704970,1966.0
5.742965535,1994.0
5.769226100,1980.0
5.795486665,1986.0
5.821747230,2005.0
5.848007795,2062.0
5.874268360,1979.0
5.900528925,1906.0
5.926789490,1999.0
5.953050055,1958.0
5.979310620,1937.0
6.005571185,1906.0
6.031831750,1950.0
6.058092315,1913.0
6.084352880,1924.0
6.110613445,1912.0
6.136874010,1868.0
6.163134575,1933.0
6.189395140,1891.0
6.215655705,1917.0
6.241916270,1974.0
6.268176835,1944.0
6.294437400,1941.0
6.320697965,1915.0
6.346958530,1857.0
6.373219095,1876.0
6.399479660,1866.0
6.425740225,1892.0
6.452000790,1866.0
6.478261355,1924.0
6.504521920,1891.0
6.530782485,1879.0
6.557043050,1949.0
6.583303615,1864.0
6.609564180,1955.0
6.635824745,1852.0
6.662085310,1861.0
6.688345875,1932.0
6.714606440,1953.0
6.740867006,1846.0
6.767127571,1862.0
6.793388136,1813.0
6.819648701,1874.0
6.845909266,1795.0
6.872169831,1800.0
6.898430396,1860.0
6.924690961,1845.0
6.950951526,1997.0
6.977212091,1834.0
7.003472656,1827.0
7.029733221,1898.0
7.055993786,1839.0
7.082254351,1801.0
7.108514916,1816.0
7.134775481,1821.0
7.161036046,1919.0
7.187296611,1871.0
7.213557176,1818.0
7.239817741,1805.0
7.266078306,1751.0
7.292338871,1771.0
7.318599436,1809.0
7.344860001,1734.0
7.371120566,1733.0
7.397381131,1859.0
7.423641696,1814.0
7.449902261,1768.0
7.476162826,1901.0
7.502423391,1809.0
7.528683956,1730.0
7.554944521,1870.0
7.581205086,1808.0
7.607465651,1693.0
7.633726216,1772.0
7.659986781,1808.0
7.686247346,1826.0
7.712507911,1775.0
7.738768476,1844.0
7.765029041,1718.0
7.791289606,1812.0
7.817550171,1698.0
7.843810736,1813.0
7.870071301,1703.0
7.896331866,1700.0
7.922592431,1754.0
7.948852996,1761.0
7.975113561,1751.0
8.001374126,1743.0
8.027634691,1719.0
8.053895256,1702.0
8.080155821,1842.0
8.106416386,1744.0
8.132676951,1714.0
8.158937516,1689.0
8.185198081,1694.0
8.211458646,1677.0
8.237719211,1792.0
8.263979776,1732.0
8.290240341,1699.0
8.316500906,1708.0
8.342761471,1705.0
8.369022036,1727.0
8.395282601,1662.0
8.421543166,1804.0
8.447803731,1725.0
8.474064296,1753.0
8.500324861,1728.0
8.526585426,1747.0
8.552845991,1714.0
8.579106556,1690.0
8.605367121,1717.0
8.631627686,1769.0
8.657888251,1639.0
8.684148816,1670.0
8.710409381,1658.0
8.736669946,1681.0
8.762930511,1749.0
8.789191076,1754.0
8.815451641,1615.0
8.841712206,1701.0
8.867972771,1660.0
8.894233336,1685.0
8.920493901,1670.0
8.946754466,1674.0
8.973015031,1680.0
8.999275596,1698.0
9.025536161,1700.0
9.051796726,1656.0
9.078057291,1725.0
9.104317856,1697.0
9.130578421,1746.0
9.156838986,1623.0
9.183099551,1674.0
9.209360116,1684.0
9.235620681,1681.0
9.261881246,1638.0
9.288141811,1650.0
9.314402376,1734.0
9.340662941,1736.0
9.366923506,1634.0
9.393184071,1795.0
9.419444636,1628.0
9.445705201,1592.0
9.471965766,1661.0
9.498226331,1704.0
9.524486896,1597.0
9.550747461,1557.0
9.577008026,1684.0
9.603268591,1652.0
9.629529156,1596.0
9.655789721,1687.0
9.682050286,1676.0
9.708310851,1657.0
9.734571416,1674.0
9.760831981,1674.0
9.787092546,1701.0
9.813353111,1575.0
9.839613676,1640.0
9.865874241,1740.0
9.892134806,1650.0
9.918395371,1667.0
9.944655936,1615.0
9.970916501,1674.0
9.997177066,1686.0
10.023437631,1671.0
10.049698196,1673.0
10.075958761,1648.0
10.102219326,1696.0
10.128479891,1631.0
10.154740457,1681.0
10.181001022,1727.0
10.207261587,1593.0
10.233522152,1619.0
10.259782717,1635.0
10.286043282,1572.0
10.312303847,1696.0
10.338564412,1622.0
10.364824977,1637.0
10.391085542,1589.0
10.417346107,1648.0
10.443606672,1590.0
10.469867237,1628.0
10.496127802,1591.0
10.522388367,1605.0
10.548648932,1640.0
10.574909497,1614.0
10.601170062,1648.0
10.627430627,1684.0
10.653691192,1597.0
10.679951757,1615.0
10.706212322,1633.0
10.732472887,1665.0
10.758733452,1617.0
10.784994017,1654.0
10.811254582,1618.0
10.837515147,1571.0
10.863775712,1638.0
10.890036277,1564.0
10.916296842,1640.0
10.942557407,1631.0
10.968817972,1646.0
10.995078537,1616.0
11.021339102,1691.0
11.047599667,1622.0
11.073860232,1659.0
11.100120797,1593.0
11.126381362,1633.0
11.152641927,1654.0
11.178902492,1628.0
11.205163057,1649.0
11.231423622,1575.0
11.257684187,1645.0
11.283944752,1559.0
11.310205317,1586.0
11.336465882,1595.0
11.362726447,1648.0
11.388987012,1541.0
11.415247577,1647.0
11.441508142,1657.0
11.467768707,1623.0
11.494029272,1592.0
11.520289837,1587.0
11.546550402,1622.0
11.572810967,1651.0
11.599071532,1582.0
11.625332097,1638.0
11.651592662,1549.0
11.677853227,1630.0
11.704113792,1646.0
11.730374357,1602.0
11.756634922,1522.0
11.782895487,1644.0
11.809156052,1620.0
11.835416617,1587.0
11.861677182,1691.0
11.887937747,1614.0
11.914198312,1606.0
11.940458877,1632.0
11.966719442,1673.0
11.992980007,1585.0
12.019240572,1630.0
12.045501137,1588.0
12.071761702,1653.0
12.098022267,1662.0
12.124282832,1610.0
12.150543397,1608.0
12.176803962,1546.0
12.203064527,1588.0
12.229325092,1607.0
12.255585657,1647.0
12.281846222,1650.0
12.308106787,1607.0
12.334367352,1655.0
12.360627917,1649.0
12.386888482,1711.0
12.413149047,1699.0
12.439409612,1566.0
12.465670177,1700.0
12.491930742,1693.0
12.518191307,1736.0
12.544451872,1649.0
12.570712437,1755.0
12.596973002,1706.0
12.623233567,1604.0
12.649494132,1682.0
12.675754697,1718.0
12.702015262,1735.0
12.728275827,1655.0
12.754536392,1665.0
12.780796957,1622.0
12.807057522,1652.0
12.833318087,1703.0
12.859578652,1724.0
12.885839217,1747.0
12.912099782,1683.0
12.938360347,1788.0
12.964620912,1737.0
12.990881477,1735.0
13.017142042,1670.0
13.043402607,1689.0
13.069663172,1739.0
13.095923737,1715.0
13.122184302,1789.0
13.148444867,1749.0
13.174705432,1758.0
13.200965997,1741.0
13.227226562,1764.0
13.253487127,1755.0
13.279747692,1838.0
13.306008257,1728.0
13.332268822,1724.0
13.358529387,1850.0
13.384789952,1800.0
13.411050517,1797.0
13.437311082,1695.0
13.463571647,1880.0
13.489832212,1774.0
13.516092777,1757.0
13.542353343,1816.0
13.568613908,1754.0
13.594874473,1753.0
13.621135038,1687.0
13.647395603,1829.0
13.673656168,1801.0
13.699916733,1798.0
13.726177298,1810.0
13.752437863,1827.0
13.778698428,1781.0
13.804958993,1790.0
13.831219558,1769.0
13.857480123,1882.0
13.883740688,1789.0
13.910001253,1849.0
13.936261818,1862.0
13.962522383,1920.0
13.988782948,1776.0
14.015043513,1866.0
14.041304078,1824.0
14.067564643,1924.0
14.093825208,1865.0
14.120085773,1831.0
14.146346338,1889.0
14.172606903,1933.0
14.198867468,1847.0
14.225128033,1899.0
14.251388598,1880.0
14.277649163,1913.0
14.303909728,1850.0
14.330170293,1848.0
14.356430858,1822.0
14.382691423,1884.0
14.408951988,1981.0
14.435212553,1945.0
14.461473118,1958.0
14.487733683,1900.0
14.513994248,1889.0
14.540254813,1931.0
14.566515378,1996.0
14.592775943,1933.0
14.619036508,1863.0
14.645297073,1928.0
14.671557638,1923.0
14.697818203,1968.0
14.724078768,1879.0
14.750339333,2005.0
14.776599898,1941.0
14.802860463,1841.0
14.829121028,1834.0
14.855381593,1989.0
14.881642158,1944.0
14.907902723,1811.0
14.934163288,1869.0
14.960423853,1873.0
14.986684418,1883.0
15.012944983,1903.0
15.039205548,1900.0
15.065466113,1885.0
15.091726678,1773.0
15.117987243,1766.0
15.144247808,1787.0
15.170508373,1803.0
15.196768938,1882.0
15.223029503,1780.0
15.249290068,1782.0
15.275550633,1722.0
15.301811198,1756.0
15.328071763,1702.0
15.354332328,1632.0
15.380592893,1654.0
15.406853458,1608.0
15.433114023,1564.0
15.459374588,1639.0
15.485635153,1508.0
15.511895718,1510.0
15.538156283,1585.0
15.564416848,1523.0
15.590677413,1446.0
15.616937978,1458.0
15.643198543,1453.0
15.669459108,1422.0
15.695719673,1388.0
15.721980238,1330.0
15.748240803,1351.0
15.774501368,1340.0
15.800761933,1315.0
15.827022498,1363.0
15.853283063,1347.0
15.879543628,1231.0
15.905804193,1249.0
15.932064758,1207.0
15.958325323,1270.0
15.984585888,1120.0
16.010846453,1217.0
16.037107018,1165.0
16.063367583,1177.0
16.089628148,1131.0
16.115888713,1139.0
16.142149278,1143.0
16.168409843,1155.0
16.194670408,1096.0
16.220930973,1135.0
16.247191538,1142.0
16.273452103,1066.0
16.299712668,1093.0
16.325973233,1044.0
16.352233798,1063.0
16.378494363,1083.0
16.404754928,1050.0
16.431015493,1048.0
16.457276058,1031.0
16.483536623,1037.0
16.509797188,1060.0
16.536057753,1036.0
16.562318318,1022.0
16.588578883,1002.0
16.614839448,1042.0
16.641100013,1081.0
16.667360578,969.0
16.693621143,1054.0
16.719881708,1006.0
16.746142273,992.0
16.772402838,897.0
16.798663403,955.0
16.824923968,997.0
16.851184533,951.0
16.877445098,946.0
16.903705663,987.0
16.929966229,919.0
16.956226794,936.0
16.982487359,969.0
17.008747924,994.0
17.035008489,956.0
17.061269054,966.0
17.087529619,915.0
17.113790184,950.0
17.140050749,883.0
17.166311314,961.0
17.192571879,915.0
17.218832444,916.0
17.245093009,848.0
17.271353574,854.0
17.297614139,949.0
17.323874704,892.0
17.350135269,913.0
17.376395834,948.0
17.402656399,867.0
17.428916964,893.0
17.455177529,845.0
17.481438094,882.0
17.507698659,914.0
17.533959224,894.0
17.560219789,925.0
17.586480354,898.0
17.612740919,900.0
17.639001484,885.0
17.665262049,930.0
17.691522614,844.0
17.717783179,851.0
17.744043744,902.0
17.770304309,852.0
17.796564874,870.0
17.822825439,876.0
17.849086004,821.0
17.875346569,834.0
17.901607134,863.0
17.927867699,870.0
17.954128264,851.0
17.980388829,883.0
18.006649394,781.0
18.032909959,873.0
18.059170524,825.0
18.085431089,852.0
18.111691654,832.0
18.137952219,864.0
18.164212784,785.0
18.190473349,821.0
18.216733914,856.0
18.242994479,838.0
18.269255044,880.0
18.295515609,843.0
18.321776174,822.0
18.348036739,827.0
18.374297304,805.0
18.400557869,806.0
18.426818434,830.0
18.453078999,802.0
18.479339564,834.0
18.505600129,816.0
18.531860694,787.0
18.558121259,897.0
18.584381824,882.0
18.610642389,834.0
18.636902954,772.0
18.663163519,817.0
18.689424084,795.0
18.715684649,815.0
18.741945214,845.0
18.768205779,843.0
18.794466344,765.0
18.820726909,863.0
18.846987474,870.0
18.873248039,806.0
18.899508604,755.0
18.925769169,820.0
18.952029734,712.0
18.978290299,825.0
19.004550864,803.0
19.030811429,811.0
19.057071994,835.0
19.083332559,840.0
19.109593124,831.0
19.135853689,818.0
19.162114254,762.0
19.188374819,815.0
19.214635384,782.0
19.240895949,799.0
19.267156514,849.0
19.293417079,824.0
19.319677644,805.0
19.345938209,786.0
19.372198774,789.0
19.398459339,789.0
19.424719904,820.0
19.450980469,826.0
19.477241034,804.0
19.503501599,785.0
19.529762164,830.0
19.556022729,772.0
19.582283294,833.0
19.608543859,800.0
19.634804424,786.0
19.661064989,770.0
19.687325554,816.0
19.713586119,790.0
19.739846684,779.0
19.766107249,833.0
19.792367814,835.0
19.818628379,817.0
19.844888944,801.0
19.871149509,814.0
19.897410074,770.0
19.923670639,816.0
19.949931204,776.0
19.976191769,805.0
20.002452334,738.0
20.028712899,846.0
20.054973464,776.0
20.081234029,784.0
20.107494594,815.0
20.133755159,789.0
20.160015724,754.0
20.186276289,723.0
20.212536854,805.0
20.238797419,831.0
20.265057984,804.0
20.291318549,809.0
20.317579114,825.0
20.343839680,726.0
20.370100245,793.0
20.396360810,823.0
20.422621375,813.0
20.448881940,839.0
20.475142505,811.0
20.501403070,803.0
20.527663635,781.0
20.553924200,785.0
20.580184765,743.0
20.606445330,805.0
20.632705895,769.0
20.658966460,776.0
20.685227025,772.0
20.711487590,785.0
20.737748155,794.0
20.764008720,762.0
20.790269285,823.0
20.816529850,779.0
20.842790415,803.0
20.869050980,824.0
20.895311545,774.0
20.921572110,771.0
20.947832675,821.0
20.974093240,795.0
21.000353805,760.0
21.026614370,776.0
21.052874935,786.0
21.079135500,809.0
21.105396065,780.0
21.131656630,825.0
21.157917195,842.0
21.184177760,762.0
21.210438325,770.0
21.236698890,800.0
21.262959455,837.0
21.289220020,817.0
21.315480585,775.0
21.341741150,782.0
21.368001715,753.0
21.394262280,843.0
21.420522845,796.0
21.446783410,868.0
21.473043975,822.0
21.499304540,793.0
21.525565105,817.0
21.551825670,753.0
21.578086235,837.0
21.604346800,780.0
21.630607365,774.0
21.656867930,790.0
21.683128495,780.0
21.709389060,738.0
21.735649625,750.0
21.761910190,781.0
21.788170755,794.0
21.814431320,767.0
21.840691885,788.0
21.866952450,781.0
21.893213015,749.0
21.919473580,807.0
21.945734145,800.0
21.971994710,795.0
21.998255275,740.0
22.024515840,859.0
22.050776405,812.0
22.077036970,843.0
22.103297535,805.0
22.129558100,836.0
22.155818665,762.0
22.182079230,837.0
22.208339795,779.0
22.234600360,835.0
22.260860925,784.0
22.287121490,821.0
22.313382055,800.0
22.339642620,817.0
22.365903185,808.0
22.392163750,756.0
22.418424315,809.0
22.444684880,855.0
22.470945445,810.0
22.497206010,763.0
22.523466575,791.0
22.549727140,817.0
22.575987705,823.0
22.602248270,783.0
22.628508835,833.0
22.654769400,803.0
22.681029965,775.0
22.707290530,802.0
22.733551095,753.0
22.759811660,756.0
22.786072225,851.0
22.812332790,736.0
22.838593355,735.0
22.864853920,812.0
22.891114485,746.0
22.917375050,865.0
22.943635615,792.0
22.969896180,813.0
22.996156745,779.0
23.022417310,812.0
23.048677875,779.0
23.074938440,797.0
23.101199005,877.0
23.127459570,843.0
23.153720135,788.0
23.179980700,749.0
23.206241265,819.0
23.232501830,777.0
23.258762395,767.0
23.285022960,836.0
23.311283525,790.0
23.337544090,783.0
23.363804655,860.0
23.390065220,812.0
23.416325785,756.0
23.442586350,814.0
23.468846915,885.0
23.495107480,842.0
23.521368045,845.0
23.547628610,818.0
23.573889175,827.0
23.600149740,797.0
23.626410305,848.0
23.652670870,787.0
23.678931435,824.0
23.705192000,773.0
23.731452566,786.0
23.757713131,811.0
23.783973696,750.0
23.810234261,813.0
23.836494826,809.0
23.862755391,800.0
23.889015956,815.0
23.915276521,819.0
23.941537086,811.0
23.967797651,781.0
23.994058216,814.0
24.020318781,821.0
24.046579346,746.0
24.072839911,814.0
24.099100476,811.0
24.125361041,807.0
24.151621606,790.0
24.177882171,760.0
24.204142736,828.0
24.230403301,853.0
24.256663866,797.0
24.282924431,821.0
24.309184996,842.0
24.335445561,854.0
24.361706126,808.0
24.387966691,791.0
24.414227256,781.0
24.440487821,793.0
24.466748386,814.0
24.493008951,813.0
24.519269516,809.0
24.545530081,811.0
24.571790646,780.0
24.598051211,804.0
24.624311776,793.0
24.650572341,847.0
24.676832906,814.0
24.703093471,752.0
24.729354036,816.0
24.755614601,825.0
24.781875166,792.0
24.808135731,850.0
24.834396296,814.0
24.860656861,848.0
24.886917426,806.0
24.913177991,771.0
24.939438556,785.0
24.965699121,844.0
24.991959686,801.0
25.018220251,796.0
25.044480816,805.0
25.070741381,743.0
25.097001946,801.0
25.123262511,832.0
25.149523076,789.0
25.175783641,807.0
25.202044206,850.0
25.228304771,815.0
25.254565336,883.0
25.280825901,817.0
25.307086466,861.0
25.333347031,794.0
25.359607596,798.0
25.385868161,819.0
25.412128726,794.0
25.438389291,790.0
25.464649856,797.0
25.490910421,828.0
25.517170986,832.0
25.543431551,816.0
25.569692116,815.0
25.595952681,826.0
25.622213246,803.0
25.648473811,859.0
25.674734376,849.0
25.700994941,836.0
25.727255506,813.0
25.753516071,803.0
25.779776636,810.0
25.806037201,807.0
25.832297766,835.0
25.858558331,807.0
25.884818896,874.0
25.911079461,855.0
25.937340026,869.0
25.963600591,822.0
25.989861156,848.0
26.016121721,871.0
26.042382286,850.0
26.068642851,806.0
26.094903416,786.0
26.121163981,813.0
26.147424546,857.0
26.173685111,822.0
26.199945676,867.0
26.226206241,857.0
26.252466806,828.0
26.278727371,793.0
26.304987936,846.0
26.331248501,882.0
26.357509066,846.0
26.383769631,859.0
26.410030196,832.0
26.436290761,851.0
26.462551326,808.0
26.488811891,829.0
26.515072456,821.0
26.541333021,866.0
26.567593586,824.0
26.593854151,868.0
26.620114716,783.0
26.646375281,772.0
26.672635846,802.0
26.698896411,797.0
26.725156976,832.0
26.751417541,825.0
26.777678106,821.0
26.803938671,809.0
26.830199236,757.0
26.856459801,800.0
26.882720366,811.0
26.908980931,773.0
26.935241496,838.0
26.961502061,761.0
26.987762626,806.0
27.014023191,811.0
27.040283756,811.0
27.066544321,801.0
27.092804886,809.0
27.119065451,795.0
27.145326017,821.0
27.171586582,765.0
27.197847147,781.0
27.224107712,789.0
27.250368277,830.0
27.276628842,826.0
27.302889407,823.0
27.329149972,868.0
27.355410537,824.0
27.381671102,839.0
27.407931667,868.0
27.434192232,833.0
27.460452797,847.0
27.486713362,856.0
27.512973927,778.0
27.539234492,821.0
27.565495057,795.0
27.591755622,818.0
27.618016187,786.0
27.644276752,803.0
27.670537317,796.0
27.696797882,842.0
27.723058447,820.0
27.749319012,785.0
27.775579577,782.0
27.801840142,830.0
27.828100707,793.0
27.854361272,849.0
27.880621837,776.0
27.906882402,832.0
27.933142967,896.0
27.959403532,825.0
27.985664097,854.0
28.011924662,807.0
28.038185227,826.0
28.064445792,829.0
28.090706357,852.0
28.116966922,817.0
28.143227487,820.0
28.169488052,841.0
28.195748617,762.0
28.222009182,806.0
28.248269747,828.0
28.274530312,871.0
28.300790877,827.0
28.327051442,842.0
28.353312007,769.0
28.379572572,788.0
28.405833137,798.0
28.432093702,843.0
28.458354267,823.0
28.484614832,829.0
28.510875397,788.0
28.537135962,773.0
28.563396527,890.0
28.589657092,808.0
28.615917657,759.0
28.642178222,825.0
28.668438787,867.0
28.694699352,816.0
28.720959917,810.0
28.747220482,808.0
28.773481047,818.0
28.799741612,855.0
28.826002177,854.0
28.852262742,746.0
28.878523307,809.0
28.904783872,822.0
28.931044437,840.0
28.957305002,792.0
28.983565567,809.0
29.009826132,867.0
29.036086697,808.0
29.062347262,884.0
29.088607827,868.0
29.114868392,828.0
29.141128957,819.0
29.167389522,802.0
29.193650087,809.0
29.219910652,807.0
29.246171217,864.0
29.272431782,790.0
29.298692347,796.0
29.324952912,803.0
29.351213477,812.0
29.377474042,801.0
29.403734607,835.0
29.429995172,786.0
29.456255737,833.0
29.482516302,844.0
29.508776867,831.0
29.535037432,801.0
29.561297997,817.0
29.587558562,847.0
29.613819127,796.0
29.640079692,819.0
29.666340257,808.0
29.692600822,849.0
29.718861387,826.0
29.745121952,799.0
29.771382517,862.0
29.797643082,843.0
29.823903647,840.0
29.850164212,798.0
29.876424777,787.0
29.902685342,792.0
29.928945907,808.0
29.955206472,767.0
29.981467037,807.0
30.007727602,812.0
30.033988167,769.0
30.060248732,790.0
30.086509297,841.0
30.112769862,805.0
30.139030427,761.0
30.165290992,830.0
30.191551557,846.0
30.217812122,819.0
30.244072687,810.0
30.270333252,822.0
30.296593817,792.0
30.322854382,744.0
30.349114947,774.0
30.375375512,784.0
30.401636077,791.0
30.427896642,776.0
30.454157207,817.0
30.480417772,758.0
30.506678337,807.0
30.532938903,783.0
30.559199468,800.0
30.585460033,754.0
30.611720598,837.0
30.637981163,783.0
30.664241728,798.0
30.690502293,758.0
30.716762858,790.0
30.743023423,828.0
30.769283988,728.0
30.795544553,748.0
30.821805118,793.0
30.848065683,808.0
30.874326248,755.0
30.900586813,808.0
30.926847378,768.0
30.953107943,781.0
30.979368508,803.0
31.005629073,703.0
31.031889638,722.0
31.058150203,779.0
31.084410768,746.0
31.110671333,787.0
31.136931898,705.0
31.163192463,770.0
31.189453028,771.0
31.215713593,738.0
31.241974158,711.0
31.268234723,680.0
31.294495288,704.0
31.320755853,731.0
31.347016418,778.0
31.373276983,771.0
31.399537548,684.0
31.425798113,735.0
31.452058678,761.0
31.478319243,705.0
31.504579808,698.0
31.530840373,742.0
31.557100938,659.0
31.583361503,719.0
31.609622068,748.0
31.635882633,727.0
31.662143198,751.0
31.688403763,695.0
31.714664328,720.0
31.740924893,693.0
31.767185458,722.0
31.793446023,676.0
31.819706588,694.0
31.845967153,691.0
31.872227718,692.0
31.898488283,737.0
31.924748848,691.0
31.951009413,692.0
31.977269978,720.0
32.003530543,669.0
32.029791108,742.0
32.056051673,726.0
32.082312238,693.0
32.108572803,671.0
32.134833368,665.0
32.161093933,681.0
32.187354498,603.0
32.213615063,749.0
32.239875628,695.0
32.266136193,661.0
32.292396758,641.0
32.318657323,671.0
32.344917888,644.0
32.371178453,680.0
32.397439018,703.0
32.423699583,633.0
32.449960148,673.0
32.476220713,657.0
32.502481278,654.0
32.528741843,691.0
32.555002408,689.0
32.581262973,666.0
32.607523538,723.0
32.633784103,649.0
32.660044668,656.0
32.686305233,703.0
32.712565798,633.0
32.738826363,674.0
32.765086928,695.0
32.791347493,641.0
32.817608058,661.0
32.843868623,657.0
32.870129188,642.0
32.896389753,653.0
32.922650318,675.0
32.948910883,661.0
32.975171448,675.0
33.001432013,615.0
33.027692578,641.0
33.053953143,655.0
33.080213708,666.0
33.106474273,658.0
33.132734838,639.0
33.158995403,642.0
33.185255968,614.0
33.211516533,664.0
33.237777098,673.0
33.264037663,659.0
33.290298228,657.0
33.316558793,647.0
33.342819358,678.0
33.369079923,672.0
33.395340488,651.0
33.421601053,674.0
33.447861618,660.0
33.474122183,685.0
33.500382748,633.0
33.526643313,645.0
33.552903878,605.0
33.579164443,654.0
33.605425008,650.0
33.631685573,678.0
33.657946138,659.0
33.684206703,621.0
33.710467268,588.0
33.736727833,642.0
33.762988398,659.0
33.789248963,669.0
33.815509528,654.0
33.841770093,672.0
33.868030658,653.0
33.894291223,667.0
33.920551789,627.0
33.946812354,626.0
33.973072919,564.0
33.999333484,664.0
34.025594049,630.0
34.051854614,623.0
34.078115179,597.0
34.104375744,612.0
34.130636309,576.0
34.156896874,636.0
34.183157439,614.0
34.209418004,665.0
34.235678569,648.0
34.261939134,630.0
34.288199699,609.0
34.314460264,623.0
34.340720829,620.0
34.366981394,595.0
34.393241959,631.0
34.419502524,640.0
34.445763089,652.0
34.472023654,627.0
34.498284219,622.0
34.524544784,603.0
34.550805349,641.0
34.577065914,620.0
34.603326479,585.0
34.629587044,629.0
34.655847609,660.0
34.682108174,580.0
34.708368739,664.0
34.734629304,637.0
34.760889869,567.0
34.787150434,623.0
34.813410999,687.0
34.839671564,672.0
34.865932129,698.0
34.892192694,621.0
34.918453259,664.0
34.944713824,609.0
34.970974389,616.0
34.997234954,621.0
35.023495519,657.0
35.049756084,675.0
35.076016649,653.0
35.102277214,649.0
35.128537779,625.0
35.154798344,648.0
35.181058909,668.0
35.207319474,651.0
35.233580039,629.0
35.259840604,650.0
35.286101169,628.0
35.312361734,654.0
35.338622299,581.0
35.364882864,643.0
35.391143429,652.0
35.417403994,606.0
35.443664559,617.0
35.469925124,630.0
35.496185689,664.0
35.522446254,688.0
35.548706819,624.0
35.574967384,663.0
35.601227949,657.0
35.627488514,623.0
35.653749079,638.0
35.680009644,648.0
35.706270209,632.0
35.732530774,633.0
35.758791339,626.0
35.785051904,620.0
35.811312469,657.0
35.837573034,662.0
35.863833599,659.0
35.890094164,652.0
35.916354729,628.0
35.942615294,662.0
35.968875859,615.0
35.995136424,626.0
36.021396989,652.0
36.047657554,653.0
36.073918119,623.0
36.100178684,637.0
36.126439249,634.0
36.152699814,660.0
36.178960379,662.0
36.205220944,653.0
36.231481509,654.0
36.257742074,639.0
36.284002639,611.0
36.310263204,713.0
36.336523769,610.0
36.362784334,607.0
36.389044899,636.0
36.415305464,656.0
36.441566029,686.0
36.467826594,644.0
36.494087159,637.0
36.520347724,616.0
36.546608289,678.0
36.572868854,631.0
36.599129419,654.0
36.625389984,663.0
36.651650549,633.0
36.677911114,672.0
36.704171679,645.0
36.730432244,651.0
36.756692809,645.0
36.782953374,654.0
36.809213939,682.0
36.835474504,680.0
36.861735069,650.0
36.887995634,644.0
36.914256199,628.0
36.940516764,675.0
36.966777329,611.0
36.993037894,682.0
37.019298459,632.0
37.045559024,713.0
37.071819589,682.0
37.098080154,687.0
37.124340719,691.0
37.150601284,658.0
37.176861849,686.0
37.203122414,698.0
37.229382979,646.0
37.255643544,716.0
37.281904109,672.0
37.308164674,630.0
37.334425240,601.0
37.360685805,678.0
37.386946370,651.0
37.413206935,732.0
37.439467500,643.0
37.465728065,699.0
37.491988630,693.0
37.518249195,656.0
37.544509760,671.0
37.570770325,727.0
37.597030890,701.0
37.623291455,672.0
37.649552020,707.0
37.675812585,660.0
37.702073150,710.0
37.728333715,691.0
37.754594280,675.0
37.780854845,679.0
37.807115410,700.0
37.833375975,646.0
37.859636540,699.0
37.885897105,674.0
37.912157670,695.0
37.938418235,660.0
37.964678800,685.0
37.990939365,675.0
38.017199930,709.0
38.043460495,681.0
38.069721060,718.0
38.095981625,768.0
38.122242190,747.0
38.148502755,772.0
38.174763320,731.0
38.201023885,751.0
38.227284450,780.0
38.253545015,798.0
38.279805580,714.0
38.306066145,699.0
38.332326710,726.0
38.358587275,743.0
38.384847840,752.0
38.411108405,775.0
38.437368970,770.0
38.463629535,781.0
38.489890100,780.0
38.516150665,777.0
38.542411230,732.0
38.568671795,755.0
38.594932360,807.0
38.621192925,820.0
38.647453490,794.0
38.673714055,813.0
38.699974620,845.0
38.726235185,861.0
38.752495750,790.0
38.778756315,834.0
38.805016880,783.0
38.831277445,746.0
38.857538010,810.0
38.883798575,818.0
38.910059140,805.0
38.936319705,810.0
38.962580270,814.0
38.988840835,865.0
39.015101400,844.0
39.041361965,867.0
39.067622530,840.0
39.093883095,891.0
39.120143660,930.0
39.146404225,854.0
39.172664790,901.0
39.198925355,907.0
39.225185920,936.0
39.251446485,867.0
39.277707050,956.0
39.303967615,926.0
39.330228180,891.0
39.356488745,953.0
39.382749310,973.0
39.409009875,979.0
39.435270440,988.0
39.461531005,1013.0
39.487791570,997.0
39.514052135,963.0
39.540312700,995.0
39.566573265,1029.0
39.592833830,1092.0
39.619094395,1034.0
39.645354960,1066.0
39.671615525,1123.0
39.697876090,1098.0
39.724136655,1130.0
39.750397220,1097.0
39.776657785,1159.0
39.802918350,1111.0
39.829178915,1235.0
39.855439480,1290.0
39.881700045,1164.0
39.907960610,1298.0
39.934221175,1360.0
39.960481740,1334.0
39.986742305,1376.0
40.013002870,1383.0
40.039263435,1439.0
40.065524000,1470.0
40.091784565,1437.0
40.118045130,1576.0
40.144305695,1525.0
40.170566260,1610.0
40.196826825,1595.0
40.223087390,1652.0
40.249347955,1730.0
40.275608520,1745.0
40.301869085,1750.0
40.328129650,1750.0
40.354390215,1794.0
40.380650780,1786.0
40.406911345,1848.0
40.433171910,1872.0
40.459432475,1881.0
40.485693040,1941.0
40.511953605,1863.0
40.538214170,1927.0
40.564474735,1954.0
40.590735300,1899.0
40.616995865,1945.0
40.643256430,1899.0
40.669516995,1962.0
40.695777560,2015.0
40.722038126,2031.0
40.748298691,1926.0
40.774559256,1946.0
40.800819821,1935.0
40.827080386,1842.0
40.853340951,1973.0
40.879601516,1891.0
40.905862081,1868.0
40.932122646,2016.0
40.958383211,1943.0
40.984643776,1928.0
41.010904341,1992.0
41.037164906,2003.0
41.063425471,1885.0
41.089686036,1968.0
41.115946601,1951.0
41.142207166,1957.0
41.168467731,1961.0
41.194728296,1944.0
41.220988861,1910.0
41.247249426,1768.0
41.273509991,1838.0
41.299770556,1828.0
41.326031121,1796.0
41.352291686,1916.0
41.378552251,1820.0
41.404812816,1847.0
41.431073381,1847.0
41.457333946,1810.0
41.483594511,1728.0
41.509855076,1742.0
41.536115641,1763.0
41.562376206,1736.0
41.588636771,1751.0
41.614897336,1870.0
41.641157901,1780.0
41.667418466,1799.0
41.693679031,1763.0
41.719939596,1720.0
41.746200161,1733.0
41.772460726,1752.0
41.798721291,1847.0
41.824981856,1677.0
41.851242421,1759.0
41.877502986,1722.0
41.903763551,1701.0
41.930024116,1704.0
41.956284681,1614.0
41.982545246,1745.0
42.008805811,1677.0
42.035066376,1662.0
42.061326941,1597.0
42.087587506,1677.0
42.113848071,1625.0
42.140108636,1668.0
42.166369201,1679.0
42.192629766,1648.0
42.218890331,1652.0
42.245150896,1579.0
42.271411461,1612.0
42.297672026,1661.0
42.323932591,1688.0
42.350193156,1615.0
42.376453721,1618.0
42.402714286,1582.0
42.428974851,1635.0
42.455235416,1539.0
42.481495981,1568.0
42.507756546,1537.0
42.534017111,1529.0
42.560277676,1554.0
42.586538241,1554.0
42.612798806,1507.0
42.639059371,1518.0
42.665319936,1498.0
42.691580501,1527.0
42.717841066,1444.0
42.744101631,1475.0
42.770362196,1477.0
42.796622761,1490.0
42.822883326,1398.0
42.849143891,1461.0
42.875404456,1449.0
42.901665021,1387.0
42.927925586,1374.0
42.954186151,1329.0
42.980446716,1429.0
43.006707281,1415.0
43.032967846,1381.0
43.059228411,1396.0
43.085488976,1414.0
43.111749541,1341.0
43.138010106,1367.0
43.164270671,1306.0
43.190531236,1294.0
43.216791801,1304.0
43.243052366,1303.0
43.269312931,1298.0
43.295573496,1294.0
43.321834061,1249.0
43.348094626,1238.0
43.374355191,1254.0
43.400615756,1304.0
43.426876321,1362.0
43.453136886,1185.0
43.479397451,1283.0
43.505658016,1227.0
43.531918581,1229.0
43.558179146,1196.0
43.584439711,1194.0
43.610700276,1212.0
43.636960841,1191.0
43.663221406,1215.0
43.689481971,1199.0
43.715742536,1230.0
43.742003101,1135.0
43.768263666,1127.0
43.794524231,1151.0
43.820784796,1185.0
43.847045361,1119.0
43.873305926,1188.0
43.899566491,1068.0
43.925827056,1141.0
43.952087621,1089.0
43.978348186,1066.0
44.004608751,1101.0
44.030869316,1092.0
44.057129881,1092.0
44.083390446,1082.0
44.109651011,1079.0
44.135911577,1122.0
44.162172142,1048.0
44.188432707,1034.0
44.214693272,1048.0
44.240953837,1087.0
44.267214402,1074.0
44.293474967,1029.0
44.319735532,1014.0
44.345996097,1006.0
44.372256662,1079.0
44.398517227,1007.0
44.424777792,983.0
44.451038357,990.0
44.477298922,1030.0
44.503559487,998.0
44.529820052,1024.0
44.556080617,1009.0
44.582341182,1006.0
44.608601747,999.0
44.634862312,924.0
44.661122877,916.0
44.687383442,941.0
44.713644007,942.0
44.739904572,911.0
44.766165137,895.0
44.792425702,894.0
44.818686267,954.0
44.844946832,890.0
44.871207397,850.0
44.897467962,884.0
44.923728527,908.0
44.949989092,872.0
44.976249657,902.0
45.002510222,857.0
45.028770787,902.0
45.055031352,886.0
45.081291917,855.0
45.107552482,838.0
45.133813047,844.0
45.160073612,837.0
45.186334177,850.0
45.212594742,922.0
45.238855307,852.0
45.265115872,873.0
45.291376437,767.0
45.317637002,821.0
45.343897567,820.0
45.370158132,843.0
45.396418697,823.0
45.422679262,766.0
45.448939827,792.0
45.475200392,850.0
45.501460957,822.0
45.527721522,799.0
45.553982087,736.0
45.580242652,792.0
45.606503217,765.0
45.632763782,887.0
45.659024347,805.0
45.685284912,781.0
45.711545477,802.0
45.737806042,822.0
45.764066607,775.0
45.790327172,743.0
45.816587737,726.0
45.842848302,785.0
45.869108867,768.0
45.895369432,704.0
45.921629997,777.0
45.947890562,719.0
45.974151127,721.0
46.000411692,775.0
46.026672257,751.0
46.052932822,747.0
46.079193387,692.0
46.105453952,690.0
46.131714517,697.0
46.157975082,723.0
46.184235647,716.0
46.210496212,753.0
46.236756777,710.0
46.263017342,729.0
46.289277907,701.0
46.315538472,710.0
46.341799037,654.0
46.368059602,661.0
46.394320167,757.0
46.420580732,696.0
46.446841297,691.0
46.473101862,748.0
46.499362427,660.0
46.525622992,688.0
46.551883557,644.0
46.578144122,701.0
46.604404687,680.0
46.630665252,723.0
46.656925817,683.0
46.683186382,680.0
46.709446947,635.0
46.735707512,727.0
46.761968077,679.0
46.788228642,659.0
46.814489207,705.0
46.840749772,711.0
46.867010337,656.0
46.893270902,663.0
46.919531467,625.0
46.945792032,660.0
46.972052597,648.0
46.998313162,678.0
47.024573727,624.0
47.050834292,687.0
47.077094857,610.0
47.103355422,639.0
47.129615987,610.0
47.155876552,591.0
47.182137117,619.0
47.208397682,628.0
47.234658247,637.0
47.260918812,625.0
47.287179377,653.0
47.313439942,611.0
47.339700507,562.0
47.365961072,625.0
47.392221637,661.0
47.418482202,612.0
47.444742767,564.0
47.471003332,613.0
47.497263897,617.0
47.523524463,570.0
47.549785028,576.0
47.576045593,604.0
47.602306158,558.0
47.628566723,566.0
47.654827288,589.0
47.681087853,627.0
47.707348418,594.0
47.733608983,583.0
47.759869548,541.0
47.786130113,621.0
47.812390678,638.0
47.838651243,607.0
47.864911808,573.0
47.891172373,526.0
47.917432938,624.0
47.943693503,587.0
47.969954068,556.0
47.996214633,529.0
48.022475198,564.0
48.048735763,526.0
48.074996328,538.0
48.101256893,543.0
48.127517458,563.0
48.153778023,534.0
48.180038588,511.0
48.206299153,529.0
48.232559718,567.0
48.258820283,512.0
48.285080848,549.0
48.311341413,545.0
48.337601978,540.0
48.363862543,510.0
48.390123108,506.0
48.416383673,568.0
48.442644238,547.0
48.468904803,517.0
48.495165368,513.0
48.521425933,481.0
48.547686498,525.0
48.573947063,528.0
48.600207628,528.0
48.626468193,482.0
48.652728758,500.0
48.678989323,522.0
48.705249888,485.0
48.731510453,522.0
48.757771018,469.0
48.784031583,535.0
48.810292148,475.0
48.836552713,521.0
48.862813278,533.0
48.889073843,528.0
48.915334408,460.0
48.941594973,475.0
48.967855538,489.0
48.994116103,419.0
49.020376668,496.0
49.046637233,519.0
49.072897798,453.0
49.099158363,520.0
49.125418928,471.0
49.151679493,477.0
49.177940058,532.0
49.204200623,467.0
49.230461188,494.0
49.256721753,488.0
49.282982318,507.0
49.309242883,445.0
49.335503448,441.0
49.361764013,460.0
49.388024578,487.0
49.414285143,462.0
49.440545708,464.0
49.466806273,485.0
49.493066838,442.0
49.519327403,461.0
49.545587968,435.0
49.571848533,467.0
49.598109098,415.0
49.624369663,473.0
49.650630228,493.0
49.676890793,451.0
49.703151358,439.0
49.729411923,431.0
49.755672488,469.0
49.781933053,421.0
49.808193618,441.0
49.834454183,413.0
49.860714748,444.0
49.886975313,493.0
49.913235878,480.0
49.939496443,441.0
49.965757008,442.0
49.992017573,439.0
50.018278138,431.0
50.044538703,430.0
50.070799268,422.0
50.097059833,470.0
50.123320398,438.0
50.149580963,432.0
50.175841528,422.0
50.202102093,422.0
50.228362658,425.0
50.254623223,430.0
50.280883788,458.0
50.307144353,421.0
50.333404918,438.0
50.359665483,448.0
50.385926048,412.0
50.412186613,416.0
50.438447178,443.0
50.464707743,423.0
50.490968308,424.0
50.517228873,401.0
50.543489438,432.0
50.569750003,488.0
50.596010568,423.0
50.622271133,420.0
50.648531698,386.0
50.674792263,410.0
50.701052828,431.0
50.727313393,407.0
50.753573958,408.0
50.779834523,389.0
50.806095088,413.0
50.832355653,432.0
50.858616218,396.0
50.884876783,411.0
50.911137349,387.0
50.937397914,401.0
50.963658479,382.0
50.989919044,391.0
51.016179609,411.0
51.042440174,423.0
51.068700739,419.0
51.094961304,392.0
51.121221869,429.0
51.147482434,418.0
51.173742999,422.0
51.200003564,351.0
51.226264129,411.0
51.252524694,412.0
51.278785259,422.0
51.305045824,418.0
51.331306389,365.0
51.357566954,359.0
51.383827519,403.0
51.410088084,384.0
51.436348649,388.0
51.462609214,421.0
51.488869779,401.0
51.515130344,387.0
51.541390909,429.0
51.567651474,359.0
51.593912039,409.0
51.620172604,420.0
51.646433169,386.0
51.672693734,426.0
51.698954299,384.0
51.725214864,362.0
51.751475429,421.0
51.777735994,361.0
51.803996559,427.0
51.830257124,405.0
51.856517689,346.0
51.882778254,364.0
51.909038819,385.0
51.935299384,388.0
51.961559949,410.0
51.987820514,360.0
52.014081079,395.0
52.040341644,388.0
52.066602209,386.0
52.092862774,371.0
52.119123339,415.0
52.145383904,370.0
52.171644469,366.0
52.197905034,348.0
52.224165599,366.0
52.250426164,410.0
52.276686729,388.0
52.302947294,405.0
52.329207859,402.0
52.355468424,386.0
52.381728989,417.0
52.407989554,384.0
52.434250119,393.0
52.460510684,394.0
52.486771249,390.0
52.513031814,396.0
52.539292379,403.0
52.565552944,375.0
52.591813509,353.0
52.618074074,379.0
52.644334639,363.0
52.670595204,369.0
52.696855769,387.0
52.723116334,369.0
52.749376899,398.0
52.775637464,399.0
52.801898029,396.0
52.828158594,384.0
52.854419159,350.0
52.880679724,385.0
52.906940289,368.0
52.933200854,366.0
52.959461419,368.0
52.985721984,370.0
53.011982549,377.0
53.038243114,367.0
53.064503679,387.0
53.090764244,326.0
53.117024809,400.0
53.143285374,370.0
53.169545939,351.0
53.195806504,349.0
53.222067069,363.0
53.248327634,353.0
53.274588199,374.0
53.300848764,355.0
53.327109329,342.0
53.353369894,372.0
53.379630459,367.0
53.405891024,337.0
53.432151589,359.0
53.458412154,365.0
53.484672719,391.0
53.510933284,374.0
53.537193849,385.0
53.563454414,365.0
53.589714979,343.0
53.615975544,349.0
53.642236109,344.0
53.668496674,375.0
53.694757239,357.0
53.721017804,384.0
53.747278369,377.0
53.773538934,365.0
53.799799499,325.0
53.826060064,376.0
53.852320629,396.0
53.878581194,358.0
53.904841759,385.0
53.931102324,392.0
53.957362889,370.0
53.983623454,351.0
54.009884019,374.0
54.036144584,379.0
54.062405149,336.0
54.088665714,329.0
54.114926279,391.0
54.141186844,341.0
54.167447409,348.0
54.193707974,339.0
54.219968539,329.0
54.246229104,324.0
54.272489669,371.0
54.298750234,353.0
54.325010800,356.0
54.351271365,343.0
54.377531930,353.0
54.403792495,391.0
54.430053060,313.0
54.456313625,382.0
54.482574190,359.0
54.508834755,365.0
54.535095320,361.0
54.561355885,396.0
54.587616450,360.0
54.613877015,373.0
54.640137580,363.0
54.666398145,336.0
54.692658710,383.0
54.718919275,347.0
54.745179840,384.0
54.771440405,375.0
54.797700970,331.0
54.823961535,394.0
54.850222100,350.0
54.876482665,342.0
54.902743230,361.0
54.929003795,368.0
54.955264360,365.0
54.981524925,384.0
55.007785490,354.0
55.034046055,343.0
55.060306620,373.0
55.086567185,353.0
55.112827750,347.0
55.139088315,353.0
55.165348880,323.0
55.191609445,347.0
55.217870010,347.0
55.244130575,344.0
55.270391140,389.0
55.296651705,355.0
55.322912270,362.0
55.349172835,375.0
55.375433400,359.0
55.401693965,302.0
55.427954530,351.0
55.454215095,324.0
55.480475660,375.0
55.506736225,315.0
55.532996790,378.0
55.559257355,327.0
55.585517920,357.0
55.611778485,330.0
55.638039050,320.0
55.664299615,339.0
55.690560180,326.0
55.716820745,345.0
55.743081310,376.0
55.769341875,389.0
55.795602440,385.0
55.821863005,365.0
55.848123570,361.0
55.874384135,361.0
55.900644700,372.0
55.926905265,351.0
55.953165830,345.0
55.979426395,387.0
56.005686960,367.0
56.031947525,371.0
56.058208090,349.0
56.084468655,340.0
56.110729220,349.0
56.136989785,338.0
56.163250350,357.0
56.189510915,386.0
56.215771480,331.0
56.242032045,330.0
56.268292610,349.0
56.294553175,341.0
56.320813740,356.0
56.347074305,329.0
56.373334870,366.0
56.399595435,349.0
56.425856000,344.0
56.452116565,366.0
56.478377130,327.0
56.504637695,337.0
56.530898260,357.0
56.557158825,341.0
56.583419390,396.0
56.609679955,317.0
56.635940520,350.0
56.662201085,346.0
56.688461650,362.0
56.714722215,351.0
56.740982780,349.0
56.767243345,343.0
56.793503910,313.0
56.819764475,326.0
56.846025040,346.0
56.872285605,321.0
56.898546170,352.0
56.924806735,357.0
56.951067300,348.0
56.977327865,358.0
57.003588430,336.0
57.029848995,339.0
57.056109560,349.0
57.082370125,357.0
57.108630690,314.0
57.134891255,348.0
57.161151820,306.0
57.187412385,314.0
57.213672950,332.0
57.239933515,338.0
57.266194080,331.0
57.292454645,324.0
57.318715210,362.0
57.344975775,349.0
57.371236340,322.0
57.397496905,329.0
57.423757470,315.0
57.450018035,350.0
57.476278600,331.0
57.502539165,359.0
57.528799730,299.0
57.555060295,347.0
57.581320860,337.0
57.607581425,304.0
57.633841990,331.0
57.660102555,327.0
57.686363120,344.0
57.712623686,318.0
57.738884251,323.0
57.765144816,293.0
57.791405381,334.0
57.817665946,318.0
57.843926511,321.0
57.870187076,348.0
57.896447641,369.0
57.922708206,346.0
57.948968771,361.0
57.975229336,359.0
58.001489901,372.0
58.027750466,327.0
58.054011031,308.0
58.080271596,314.0
58.106532161,318.0
58.132792726,313.0
58.159053291,327.0
58.185313856,374.0
58.211574421,335.0
58.237834986,353.0
58.264095551,313.0
58.290356116,339.0
58.316616681,341.0
58.342877246,331.0
58.369137811,331.0
58.395398376,384.0
58.421658941,331.0
58.447919506,351.0
58.474180071,329.0
58.500440636,355.0
58.526701201,343.0
58.552961766,311.0
58.579222331,352.0
58.605482896,346.0
58.631743461,337.0
58.658004026,325.0
58.684264591,317.0
58.710525156,343.0
58.736785721,329.0
58.763046286,356.0
58.789306851,293.0
58.815567416,344.0
58.841827981,380.0
58.868088546,358.0
58.894349111,362.0
58.920609676,345.0
58.946870241,353.0
58.973130806,303.0
58.999391371,317.0
59.025651936,334.0
59.051912501,268.0
59.078173066,300.0
59.104433631,345.0
59.130694196,348.0
59.156954761,341.0
59.183215326,326.0
59.209475891,348.0
59.235736456,322.0
59.261997021,298.0
59.288257586,361.0
59.314518151,327.0
59.340778716,368.0
59.367039281,309.0
59.393299846,322.0
59.419560411,370.0
59.445820976,369.0
59.472081541,303.0
59.498342106,318.0
59.524602671,330.0
59.550863236,332.0
59.577123801,311.0
59.603384366,335.0
59.629644931,381.0
59.655905496,321.0
59.682166061,314.0
59.708426626,328.0
59.734687191,327.0
59.760947756,292.0
59.787208321,320.0
59.813468886,304.0
59.839729451,318.0
59.865990016,285.0
59.892250581,295.0
59.918511146,315.0
59.944771711,301.0
59.971032276,339.0
59.997292841,353.0
60.023553406,320.0
60.049813971,325.0
60.076074536,346.0
60.102335101,337.0
60.128595666,361.0
60.154856231,310.0
60.181116796,323.0
60.207377361,324.0
60.233637926,316.0
60.259898491,324.0
60.286159056,307.0
60.312419621,325.0
60.338680186,321.0
60.364940751,338.0
60.391201316,297.0
60.417461881,352.0
60.443722446,327.0
60.469983011,294.0
60.496243576,349.0
60.522504141,329.0
60.548764706,287.0
60.575025271,318.0
60.601285836,324.0
60.627546401,298.0
60.653806966,345.0
60.680067531,297.0
60.706328096,306.0
60.732588661,335.0
60.758849226,328.0
60.785109791,336.0
60.811370356,329.0
60.837630921,352.0
60.863891486,320.0
60.890152051,317.0
60.916412616,309.0
60.942673181,268.0
60.968933746,315.0
60.995194311,320.0
61.021454876,307.0
61.047715441,292.0
61.073976006,286.0
61.100236571,316.0
61.126497137,354.0
61.152757702,333.0
61.179018267,310.0
61.205278832,303.0
61.231539397,313.0
61.257799962,305.0
61.284060527,353.0
61.310321092,331.0
61.336581657,327.0
61.362842222,318.0
61.389102787,314.0
61.415363352,319.0
61.441623917,303.0
61.467884482,326.0
61.494145047,340.0
61.520405612,316.0
61.546666177,292.0
61.572926742,344.0
61.599187307,322.0
61.625447872,352.0
61.651708437,301.0
61.677969002,337.0
61.704229567,302.0
61.730490132,321.0
61.756750697,321.0
61.783011262,317.0
61.809271827,308.0
61.835532392,356.0
61.861792957,297.0
61.888053522,359.0
61.914314087,301.0
61.940574652,302.0
61.966835217,298.0
61.993095782,311.0
62.019356347,290.0
62.045616912,308.0
62.071877477,304.0
62.098138042,307.0
62.124398607,307.0
62.150659172,338.0
62.176919737,308.0
62.203180302,295.0
62.229440867,293.0
62.255701432,331.0
62.281961997,333.0
62.308222562,296.0
62.334483127,301.0
62.360743692,318.0
62.387004257,334.0
62.413264822,297.0
62.439525387,291.0
62.465785952,312.0
62.492046517,303.0
62.518307082,327.0
62.544567647,314.0
62.570828212,319.0
62.597088777,339.0
62.623349342,330.0
62.649609907,322.0
62.675870472,314.0
62.702131037,334.0
62.728391602,324.0
62.754652167,306.0
62.780912732,299.0
62.807173297,354.0
62.833433862,328.0
62.859694427,342.0
62.885954992,290.0
62.912215557,355.0
62.938476122,264.0
62.964736687,261.0
62.990997252,311.0
63.017257817,304.0
63.043518382,309.0
63.069778947,295.0
63.096039512,308.0
63.122300077,349.0
63.148560642,316.0
63.174821207,299.0
63.201081772,312.0
63.227342337,281.0
63.253602902,294.0
63.279863467,317.0
63.306124032,287.0
63.332384597,322.0
63.358645162,285.0
63.384905727,307.0
63.411166292,309.0
63.437426857,293.0
63.463687422,334.0
63.489947987,345.0
63.516208552,321.0
63.542469117,299.0
63.568729682,296.0
63.594990247,291.0
63.621250812,301.0
63.647511377,302.0
63.673771942,323.0
63.700032507,296.0
63.726293072,317.0
63.752553637,316.0
63.778814202,320.0
63.805074767,306.0
63.831335332,305.0
63.857595897,274.0
63.883856462,286.0
63.910117027,301.0
63.936377592,324.0
63.962638157,317.0
63.988898722,302.0
64.015159287,297.0
64.041419852,318.0
64.067680417,306.0
64.093940982,303.0
64.120201547,314.0
64.146462112,313.0
64.172722677,313.0
64.198983242,332.0
64.225243807,267.0
64.251504372,282.0
64.277764937,285.0
64.304025502,303.0
64.330286067,304.0
64.356546632,290.0
64.382807197,306.0
64.409067762,288.0
64.435328327,313.0
64.461588892,313.0
64.487849457,290.0
64.514110023,270.0
64.540370588,283.0
64.566631153,297.0
64.592891718,296.0
64.619152283,294.0
64.645412848,301.0
64.671673413,281.0
64.697933978,312.0
64.724194543,313.0
64.750455108,304.0
64.776715673,314.0
64.802976238,283.0
64.829236803,310.0
64.855497368,292.0
64.881757933,276.0
64.908018498,286.0
64.934279063,283.0
64.960539628,257.0
64.986800193,256.0
65.013060758,285.0
65.039321323,312.0
65.065581888,326.0
65.091842453,292.0
65.118103018,301.0
65.144363583,293.0
65.170624148,302.0
65.196884713,304.0
65.223145278,301.0
65.249405843,301.0
65.275666408,294.0
65.301926973,281.0
65.328187538,302.0
65.354448103,305.0
65.380708668,254.0
65.406969233,277.0
65.433229798,301.0
65.459490363,277.0
65.485750928,290.0
65.512011493,271.0
65.538272058,292.0
65.564532623,305.0
65.590793188,312.0
65.617053753,258.0
65.643314318,289.0
65.669574883,279.0
65.695835448,331.0
65.722096013,293.0
65.748356578,254.0
65.774617143,297.0
65.800877708,274.0
65.827138273,257.0
65.853398838,312.0
65.879659403,272.0
65.905919968,295.0
65.932180533,288.0
65.958441098,279.0
65.984701663,317.0
66.010962228,283.0
66.037222793,259.0
66.063483358,309.0
66.089743923,267.0
66.116004488,287.0
66.142265053,279.0
66.168525618,296.0
66.194786183,267.0
66.221046748,305.0
66.247307313,293.0
66.273567878,316.0
66.299828443,245.0
66.326089008,307.0
66.352349573,284.0
66.378610138,311.0
66.404870703,274.0
66.431131268,268.0
66.457391833,275.0
66.483652398,309.0
66.509912963,269.0
66.536173528,272.0
66.562434093,264.0
66.588694658,297.0
66.614955223,275.0
66.641215788,296.0
66.667476353,264.0
66.693736918,286.0
66.719997483,269.0
66.746258048,239.0
66.772518613,279.0
66.798779178,278.0
66.825039743,274.0
66.851300308,261.0
66.877560873,284.0
66.903821438,268.0
66.930082003,266.0
66.956342568,297.0
66.982603133,268.0
67.008863698,275.0
67.035124263,287.0
67.061384828,258.0
67.087645393,257.0
67.113905958,279.0
67.140166523,272.0
67.166427088,244.0
67.192687653,299.0
67.218948218,284.0
67.245208783,262.0
67.271469348,245.0
67.297729913,278.0
67.323990478,301.0
67.350251043,282.0
67.376511608,250.0
67.402772173,299.0
67.429032738,281.0
67.455293303,287.0
67.481553868,276.0
67.507814433,294.0
67.534074998,286.0
67.560335563,267.0
67.586596128,287.0
67.612856693,252.0
67.639117258,308.0
67.665377823,294.0
67.691638388,263.0
67.717898953,294.0
67.744159518,287.0
67.770420083,278.0
67.796680648,289.0
67.822941213,276.0
67.849201778,282.0
67.875462343,299.0
67.901722909,262.0
67.927983474,293.0
67.954244039,300.0
67.980504604,269.0
68.006765169,280.0
68.033025734,267.0
68.059286299,279.0
68.085546864,267.0
68.111807429,270.0
68.138067994,275.0
68.164328559,290.0
68.190589124,275.0
68.216849689,294.0
68.243110254,292.0
68.269370819,281.0
68.295631384,271.0
68.321891949,297.0
68.348152514,275.0
68.374413079,272.0
68.400673644,270.0
68.426934209,292.0
68.453194774,263.0
68.479455339,282.0
68.505715904,262.0
68.531976469,272.0
68.558237034,285.0
68.584497599,337.0
68.610758164,296.0
68.637018729,272.0
68.663279294,286.0
68.689539859,278.0
68.715800424,299.0
68.742060989,291.0
68.768321554,249.0
68.794582119,276.0
68.820842684,257.0
68.847103249,269.0
68.873363814,261.0
68.899624379,285.0
68.925884944,265.0
68.952145509,281.0
68.978406074,251.0
69.004666639,263.0
69.030927204,297.0
69.057187769,231.0
69.083448334,240.0
69.109708899,256.0
69.135969464,268.0
69.162230029,259.0
69.188490594,279.0
69.214751159,255.0
69.241011724,238.0
69.267272289,259.0
69.293532854,258.0
69.319793419,277.0
69.346053984,246.0
69.372314549,255.0
69.398575114,303.0
69.424835679,269.0
69.451096244,278.0
69.477356809,253.0
69.503617374,260.0
69.529877939,277.0
69.556138504,286.0
69.582399069,255.0
69.608659634,277.0
69.634920199,289.0
69.661180764,279.0
69.687441329,273.0
69.713701894,259.0
69.739962459,246.0
69.766223024,265.0
69.792483589,293.0
69.818744154,281.0
69.845004719,299.0
69.871265284,286.0
69.897525849,295.0
69.923786414,307.0
69.950046979,270.0
69.976307544,266.0
70.002568109,250.0
70.028828674,281.0
70.055089239,256.0
70.081349804,291.0
70.107610369,276.0
70.133870934,269.0
70.160131499,272.0
70.186392064,281.0
70.212652629,258.0
70.238913194,317.0
70.265173759,274.0
70.291434324,278.0
70.317694889,269.0
70.343955454,280.0
70.370216019,260.0
70.396476584,245.0
70.422737149,307.0
70.448997714,266.0
70.475258279,268.0
70.501518844,295.0
70.527779409,266.0
70.554039974,275.0
70.580300539,273.0
70.606561104,291.0
70.632821669,266.0
70.659082234,259.0
70.685342799,260.0
70.711603364,294.0
70.737863929,283.0
70.764124494,269.0
70.790385059,269.0
70.816645624,274.0
70.842906189,281.0
70.869166754,294.0
70.895427319,276.0
70.921687884,287.0
70.947948449,259.0
70.974209014,284.0
71.000469579,237.0
71.026730144,282.0
71.052990709,297.0
71.079251274,300.0
71.105511839,255.0
71.131772404,293.0
71.158032969,284.0
71.184293534,281.0
71.210554099,264.0
71.236814664,242.0
71.263075229,298.0
71.289335794,290.0
71.315596360,310.0
71.341856925,298.0
71.368117490,276.0
71.394378055,269.0
71.420638620,268.0
71.446899185,307.0
71.473159750,274.0
71.499420315,280.0
71.525680880,310.0
71.551941445,294.0
71.578202010,301.0
71.604462575,285.0
71.630723140,296.0
71.656983705,306.0
71.683244270,258.0
71.709504835,308.0
71.735765400,272.0
71.762025965,314.0
71.788286530,294.0
71.814547095,301.0
71.840807660,305.0
71.867068225,314.0
71.893328790,313.0
71.919589355,278.0
71.945849920,303.0
71.972110485,331.0
71.998371050,305.0
72.024631615,293.0
72.050892180,300.0
72.077152745,317.0
72.103413310,302.0
72.129673875,322.0
72.155934440,311.0
72.182195005,337.0
72.208455570,281.0
72.234716135,311.0
72.260976700,308.0
72.287237265,310.0
72.313497830,360.0
72.339758395,342.0
72.366018960,307.0
72.392279525,321.0
72.418540090,339.0
72.444800655,335.0
72.471061220,313.0
72.497321785,350.0
72.523582350,340.0
72.549842915,368.0
72.576103480,352.0
72.602364045,326.0
72.628624610,397.0
72.654885175,371.0
72.681145740,375.0
72.707406305,387.0
72.733666870,383.0
72.759927435,355.0
72.786188000,386.0
72.812448565,392.0
72.838709130,395.0
72.864969695,369.0
72.891230260,406.0
72.917490825,402.0
72.943751390,439.0
72.970011955,391.0
72.996272520,442.0
73.022533085,404.0
73.048793650,389.0
73.075054215,392.0
73.101314780,412.0
73.127575345,411.0
73.153835910,383.0
73.180096475,422.0
73.206357040,425.0
73.232617605,432.0
73.258878170,465.0
73.285138735,406.0
73.311399300,438.0
73.337659865,448.0
73.363920430,467.0
73.390180995,479.0
73.416441560,428.0
73.442702125,442.0
73.468962690,470.0
73.495223255,437.0
73.521483820,404.0
73.547744385,440.0
73.574004950,440.0
73.600265515,412.0
73.626526080,425.0
73.652786645,449.0
73.679047210,474.0
73.705307775,381.0
73.731568340,407.0
73.757828905,391.0
73.784089470,425.0
73.810350035,451.0
73.836610600,373.0
73.862871165,370.0
73.889131730,369.0
73.915392295,413.0
73.941652860,375.0
73.967913425,416.0
73.994173990,400.0
74.020434555,378.0
74.046695120,382.0
74.072955685,382.0
74.099216250,411.0
74.125476815,364.0
74.151737380,377.0
74.177997945,377.0
74.204258510,329.0
74.230519075,354.0
74.256779640,366.0
74.283040205,378.0
74.309300770,378.0
74.335561335,347.0
74.361821900,354.0
74.388082465,325.0
74.414343030,384.0
74.440603595,334.0
74.466864160,343.0
74.493124725,345.0
74.519385290,296.0
74.545645855,341.0
74.571906420,377.0
74.598166985,337.0
74.624427550,332.0
74.650688115,323.0
74.676948680,330.0
74.703209246,328.0
74.729469811,297.0
74.755730376,316.0
74.781990941,336.0
74.808251506,358.0
74.834512071,321.0
74.860772636,334.0
74.887033201,312.0
74.913293766,319.0
74.939554331,304.0
74.965814896,329.0
74.992075461,298.0
75.018336026,301.0
75.044596591,297.0
75.070857156,338.0
75.097117721,259.0
75.123378286,290.0
75.149638851,339.0
75.175899416,294.0
75.202159981,296.0
75.228420546,303.0
75.254681111,343.0
75.280941676,311.0
75.307202241,303.0
75.333462806,295.0
75.359723371,321.0
75.385983936,289.0
75.412244501,303.0
75.438505066,272.0
75.464765631,277.0
75.491026196,299.0
75.517286761,305.0
75.543547326,314.0
75.569807891,284.0
75.596068456,288.0
75.622329021,268.0
75.648589586,261.0
75.674850151,295.0
75.701110716,269.0
75.727371281,284.0
75.753631846,308.0
75.779892411,257.0
75.806152976,270.0
75.832413541,294.0
75.858674106,276.0
75.884934671,303.0
75.911195236,295.0
75.937455801,269.0
75.963716366,275.0
75.989976931,276.0
76.016237496,299.0
76.042498061,280.0
76.068758626,264.0
76.095019191,292.0
76.121279756,273.0
76.147540321,260.0
76.173800886,241.0
76.200061451,284.0
76.226322016,248.0
76.252582581,299.0
76.278843146,255.0
76.305103711,270.0
76.331364276,280.0
76.357624841,257.0
76.383885406,267.0
76.410145971,264.0
76.436406536,300.0
76.462667101,282.0
76.488927666,262.0
76.515188231,293.0
76.541448796,265.0
76.567709361,256.0
76.593969926,303.0
76.620230491,287.0
76.646491056,285.0
76.672751621,260.0
76.699012186,262.0
76.725272751,256.0
76.751533316,261.0
76.777793881,267.0
76.804054446,270.0
76.830315011,278.0
76.856575576,276.0
76.882836141,262.0
76.909096706,256.0
76.935357271,253.0
76.961617836,262.0
76.987878401,278.0
77.014138966,255.0
77.040399531,298.0
77.066660096,246.0
77.092920661,241.0
77.119181226,280.0
77.145441791,258.0
77.171702356,294.0
77.197962921,279.0
77.224223486,238.0
77.250484051,269.0
77.276744616,266.0
77.303005181,260.0
77.329265746,275.0
77.355526311,247.0
77.381786876,313.0
77.408047441,278.0
77.434308006,259.0
77.460568571,248.0
77.486829136,285.0
77.513089701,272.0
77.539350266,256.0
77.565610831,266.0
77.591871396,263.0
77.618131961,261.0
77.644392526,234.0
77.670653091,259.0
77.696913656,243.0
77.723174221,292.0
77.749434786,269.0
77.775695351,255.0
77.801955916,257.0
77.828216481,240.0
77.854477046,267.0
77.880737611,271.0
77.906998176,270.0
77.933258741,289.0
77.959519306,240.0
77.985779871,281.0
78.012040436,267.0
78.038301001,246.0
78.064561566,262.0
78.090822131,268.0
78.117082697,237.0
78.143343262,270.0
78.169603827,281.0
78.195864392,249.0
78.222124957,254.0
78.248385522,241.0
78.274646087,223.0
78.300906652,260.0
78.327167217,242.0
78.353427782,278.0
78.379688347,256.0
78.405948912,238.0
78.432209477,239.0
78.458470042,265.0
78.484730607,285.0
78.510991172,221.0
78.537251737,216.0
78.563512302,264.0
78.589772867,268.0
78.616033432,242.0
78.642293997,259.0
78.668554562,314.0
78.694815127,219.0
78.721075692,294.0
78.747336257,243.0
78.773596822,265.0
78.799857387,257.0
78.826117952,265.0
78.852378517,248.0
78.878639082,261.0
78.904899647,249.0
78.931160212,232.0
78.957420777,272.0
78.983681342,290.0
79.009941907,251.0
79.036202472,241.0
79.062463037,275.0
79.088723602,263.0
79.114984167,276.0
79.141244732,246.0
79.167505297,256.0
79.193765862,265.0
79.220026427,258.0
79.246286992,268.0
79.272547557,270.0
79.298808122,241.0
79.325068687,266.0
79.351329252,253.0
79.377589817,259.0
79.403850382,238.0
79.430110947,285.0
79.456371512,257.0
79.482632077,259.0
79.508892642,261.0
79.535153207,262.0
79.561413772,260.0
79.587674337,268.0
79.613934902,274.0
79.640195467,249.0
79.666456032,263.0
79.692716597,263.0
79.718977162,264.0
79.745237727,231.0
79.771498292,264.0
79.797758857,275.0
79.824019422,248.0
79.850279987,269.0
79.876540552,235.0
79.902801117,248.0
79.929061682,248.0
79.955322247,221.0
79.981582812,229.0
80.007843377,256.0
80.034103942,268.0
80.060364507,261.0
80.086625072,285.0
80.112885637,234.0
80.139146202,262.0
80.165406767,240.0
80.191667332,244.0
80.217927897,269.0
80.244188462,257.0
80.270449027,244.0
80.296709592,256.0
80.322970157,237.0
80.349230722,240.0
80.375491287,245.0
80.401751852,277.0
80.428012417,260.0
80.454272982,253.0
80.480533547,275.0
80.506794112,235.0
80.533054677,245.0
80.559315242,255.0
80.585575807,231.0
80.611836372,269.0
80.638096937,235.0
80.664357502,236.0
80.690618067,243.0
80.716878632,235.0
80.743139197,239.0
80.769399762,269.0
80.795660327,252.0
80.821920892,253.0
80.848181457,249.0
80.874442022,215.0
80.900702587,218.0
80.926963152,274.0
80.953223717,224.0
80.979484282,251.0
81.005744847,246.0
81.032005412,241.0
81.058265977,245.0
81.084526542,248.0
81.110787107,251.0
81.137047672,288.0
81.163308237,251.0
81.189568802,258.0
81.215829367,224.0
81.242089932,261.0
81.268350497,250.0
81.294611062,262.0
81.320871627,240.0
81.347132192,241.0
81.373392757,239.0
81.399653322,275.0
81.425913887,251.0
81.452174452,246.0
81.478435017,242.0
81.504695583,235.0
81.530956148,247.0
81.557216713,263.0
81.583477278,237.0
81.609737843,242.0
81.635998408,245.0
81.662258973,272.0
81.688519538,248.0
81.714780103,238.0
81.741040668,252.0
81.767301233,248.0
81.793561798,235.0
81.819822363,288.0
81.846082928,229.0
81.872343493,248.0
81.898604058,225.0
81.924864623,255.0
81.951125188,229.0
81.977385753,229.0
82.003646318,265.0
82.029906883,259.0
82.056167448,254.0
82.082428013,213.0
82.108688578,235.0
82.134949143,243.0
82.161209708,253.0
82.187470273,222.0
82.213730838,244.0
82.239991403,231.0
82.266251968,232.0
82.292512533,274.0
82.318773098,259.0
82.345033663,237.0
82.371294228,238.0
82.397554793,250.0
82.423815358,266.0
82.450075923,262.0
82.476336488,249.0
82.502597053,236.0
82.528857618,239.0
82.555118183,239.0
82.581378748,247.0
82.607639313,224.0
82.633899878,255.0
82.660160443,251.0
82.686421008,282.0
82.712681573,232.0
82.738942138,209.0
82.765202703,275.0
82.791463268,234.0
82.817723833,223.0
82.843984398,231.0
82.870244963,228.0
82.896505528,210.0
82.922766093,230.0
82.949026658,244.0
82.975287223,232.0
83.001547788,217.0
83.027808353,246.0
83.054068918,241.0
83.080329483,225.0
83.106590048,224.0
83.132850613,263.0
83.159111178,257.0
83.185371743,233.0
83.211632308,219.0
83.237892873,234.0
83.264153438,208.0
83.290414003,228.0
83.316674568,233.0
83.342935133,223.0
83.369195698,245.0
83.395456263,258.0
83.421716828,287.0
83.447977393,230.0
83.474237958,252.0
83.500498523,192.0
83.526759088,202.0
83.553019653,228.0
83.579280218,263.0
83.605540783,235.0
83.631801348,216.0
83.658061913,225.0
83.684322478,250.0
83.710583043,240.0
83.736843608,259.0
83.763104173,241.0
83.789364738,230.0
83.815625303,231.0
83.841885868,255.0
83.868146433,252.0
83.894406998,231.0
83.920667563,234.0
83.946928128,212.0
83.973188693,219.0
83.999449258,251.0
84.025709823,213.0
84.051970388,220.0
84.078230953,235.0
84.104491518,242.0
84.130752083,231.0
84.157012648,229.0
84.183273213,264.0
84.209533778,235.0
84.235794343,227.0
84.262054908,263.0
84.288315473,223.0
84.314576038,240.0
84.340836603,230.0
84.367097168,251.0
84.393357733,238.0
84.419618298,234.0
84.445878863,260.0
84.472139428,234.0
84.498399993,239.0
84.524660558,246.0
84.550921123,267.0
84.577181688,243.0
84.603442253,193.0
84.629702818,239.0
84.655963383,234.0
84.682223948,238.0
84.708484513,222.0
84.734745078,226.0
84.761005643,251.0
84.787266208,214.0
84.813526773,259.0
84.839787338,244.0
84.866047903,221.0
84.892308469,238.0
84.918569034,232.0
84.944829599,240.0
84.971090164,238.0
84.997350729,237.0
85.023611294,231.0
85.049871859,253.0
85.076132424,233.0
85.102392989,243.0
85.128653554,225.0
85.154914119,235.0
85.181174684,245.0
85.207435249,218.0
85.233695814,267.0
85.259956379,224.0
85.286216944,227.0
85.312477509,268.0
85.338738074,238.0
85.364998639,209.0
85.391259204,233.0
85.417519769,247.0
85.443780334,213.0
85.470040899,227.0
85.496301464,246.0
85.522562029,244.0
85.548822594,221.0
85.575083159,218.0
85.601343724,217.0
85.627604289,247.0
85.653864854,232.0
85.680125419,213.0
85.706385984,204.0
85.732646549,244.0
85.758907114,227.0
85.785167679,215.0
85.811428244,247.0
85.837688809,217.0
85.863949374,240.0
85.890209939,226.0
85.916470504,246.0
85.942731069,230.0
85.968991634,265.0
85.995252199,244.0
86.021512764,227.0
86.047773329,237.0
86.074033894,228.0
86.100294459,241.0
86.126555024,236.0
86.152815589,261.0
86.179076154,227.0
86.205336719,250.0
86.231597284,241.0
86.257857849,256.0
86.284118414,231.0
86.310378979,238.0
86.336639544,233.0
86.362900109,216.0
86.389160674,251.0
86.415421239,236.0
86.441681804,246.0
86.467942369,242.0
86.494202934,215.0
86.520463499,249.0
86.546724064,249.0
86.572984629,218.0
86.599245194,243.0
86.625505759,238.0
86.651766324,270.0
86.678026889,271.0
86.704287454,237.0
86.730548019,219.0
86.756808584,257.0
86.783069149,266.0
86.809329714,250.0
86.835590279,246.0
86.861850844,257.0
86.888111409,263.0
86.914371974,268.0
86.940632539,270.0
86.966893104,286.0
86.993153669,221.0
87.019414234,237.0
87.045674799,265.0
87.071935364,240.0
87.098195929,245.0
87.124456494,243.0
87.150717059,250.0
87.176977624,237.0
87.203238189,240.0
87.229498754,255.0
87.255759319,250.0
87.282019884,304.0
87.308280449,245.0
87.334541014,254.0
87.360801579,229.0
87.387062144,284.0
87.413322709,244.0
87.439583274,253.0
87.465843839,266.0
87.492104404,235.0
87.518364969,231.0
87.544625534,254.0
87.570886099,250.0
87.597146664,276.0
87.623407229,266.0
87.649667794,285.0
87.675928359,265.0
87.702188924,258.0
87.728449489,253.0
87.754710054,269.0
87.780970619,264.0
87.807231184,253.0
87.833491749,248.0
87.859752314,268.0
87.886012879,243.0
87.912273444,257.0
87.938534009,234.0
87.964794574,258.0
87.991055139,270.0
88.017315704,249.0
88.043576269,282.0
88.069836834,265.0
88.096097399,250.0
88.122357964,286.0
88.148618529,297.0
88.174879094,270.0
88.201139659,269.0
88.227400224,248.0
88.253660789,266.0
88.279921354,252.0
88.306181920,240.0
88.332442485,255.0
88.358703050,300.0
88.384963615,252.0
88.411224180,269.0
88.437484745,233.0
88.463745310,257.0
88.490005875,245.0
88.516266440,271.0
88.542527005,258.0
88.568787570,260.0
88.595048135,247.0
88.621308700,236.0
88.647569265,235.0
88.673829830,266.0
88.700090395,244.0
88.726350960,263.0
88.752611525,258.0
88.778872090,233.0
88.805132655,219.0
88.831393220,253.0
88.857653785,261.0
88.883914350,224.0
88.910174915,234.0
88.936435480,263.0
88.962696045,251.0
88.988956610,255.0
89.015217175,266.0
89.041477740,229.0
89.067738305,237.0
89.093998870,262.0
89.120259435,226.0
89.146520000,247.0
89.172780565,248.0
89.199041130,280.0
89.225301695,245.0
89.251562260,250.0
89.277822825,243.0
89.304083390,230.0
89.330343955,214.0
89.356604520,270.0
89.382865085,251.0
89.409125650,234.0
89.435386215,287.0
89.461646780,244.0
89.487907345,269.0
89.514167910,239.0
89.540428475,231.0
89.566689040,227.0
89.592949605,205.0
89.619210170,227.0
89.645470735,253.0
89.671731300,229.0
89.697991865,251.0
89.724252430,235.0
89.750512995,257.0
89.776773560,229.0
89.803034125,255.0
89.829294690,230.0
89.855555255,223.0
89.881815820,250.0
89.908076385,285.0
89.934336950,241.0
89.960597515,247.0
89.986858080,229.0
