[Measurement conditions]
Sample identification,
Comment - 1,"Configuration=Stage for flat samples/holders, Owner=User-1, Creation date=3/27/2015 11:56:23 AM"
Comment - 2,"Goniometer=Theta/Theta; Minimum step size 2Theta:0.0001; Minimum step size Omega:0.0001"
Comment - 3,"Sample stage=Stage for flat samples/holders"
Comment - 4,"Diffractometer system=EMPYREAN"
Comment - 5,"Measurement program=C:\PANalytical\Data Collector\Programs\Powder - Copy.xrdmp, Identifier={BEEA10DD-8FD6-4721-8940-4FBC5A4262A1}"
Comment - 6,"Fine Calibration Offset for 2Theta = -0.0130 deg"
Comment - 7,"Fine Calibration Offset for Omega = -0.0070 deg"
Anode material,Cu
K-Alpha1 wavelength,1.5405980
K-Alpha2 wavelength,1.5444260
Ratio K-Alpha2/K-Alpha1,0.500
Divergence slit,Fixed,0.38mm
Monochromator used,NO
Generator voltage, 40
Tube current, 35
File date and time,24/Jul/2017 16:20
Unit cell,
h k l, 0 0 0
Scan axis,Gonio
Scan range,5.020799997,89.999988363
Scan step size,0.0262606
No. of points, 3236
Scan type,CONTINUOUS
Time per step,18.615
[Scan points]
Angle,Intensity
5.033930280,1034.0
5.060190845,1027.0
5.086451410,1062.0
5.112711975,1117.0
5.138972540,1080.0
5.165233105,1004.0
5.191493670,1066.0
5.217754235,1014.0
5.244014800,1068.0
5.270275365,1104.0
5.296535930,1067.0
5.322796495,1053.0
5.349057060,1046.0
5.375317625,991.0
5.401578190,990.0
5.427838755,1080.0
5.454099320,1020.0
5.480359885,1018.0
5.506620450,1128.0
5.532881015,1051.0
5.559141580,995.0
5.585402145,1024.0
5.611662710,1028.0
5.637923275,1022.0
5.664183840,1042.0
5.690444405,988.0
5.716704970,1047.0
5.742965535,970.0
5.769226100,1034.0
5.795486665,1042.0
5.821747230,1003.0
5.848007795,1072.0
5.874268360,1013.0
5.900528925,1035.0
5.926789490,1076.0
5.953050055,1025.0
5.979310620,1011.0
6.005571185,1001.0
6.031831750,1027.0
6.058092315,961.0
6.084352880,1065.0
6.110613445,991.0
6.136874010,993.0
6.163134575,968.0
6.189395140,1073.0
6.215655705,1082.0
6.241916270,1020.0
6.268176835,1073.0
6.294437400,1062.0
6.320697965,1043.0
6.346958530,1008.0
6.373219095,1032.0
6.399479660,1046.0
6.425740225,1036.0
6.452000790,1024.0
6.478261355,1057.0
6.504521920,1004.0
6.530782485,1020.0
6.557043050,1009.0
6.583303615,1002.0
6.609564180,940.0
6.635824745,1042.0
6.662085310,1014.0
6.688345875,1021.0
6.714606440,978.0
6.740867006,958.0
6.767127571,991.0
6.793388136,986.0
6.819648701,977.0
6.845909266,985.0
6.872169831,964.0
6.898430396,1002.0
6.924690961,993.0
6.950951526,1037.0
6.977212091,1036.0
7.003472656,1022.0
7.029733221,944.0
7.055993786,976.0
7.082254351,999.0
7.108514916,1004.0
7.134775481,953.0
7.161036046,926.0
7.187296611,994.0
7.213557176,944.0
7.239817741,988.0
7.266078306,979.0
7.292338871,985.0
7.318599436,987.0
7.344860001,997.0
7.371120566,968.0
7.397381131,944.0
7.423641696,971.0
7.449902261,940.0
7.476162826,935.0
7.502423391,948.0
7.528683956,1004.0
7.554944521,954.0
7.581205086,909.0
7.607465651,946.0
7.633726216,979.0
7.659986781,961.0
7.686247346,922.0
7.712507911,940.0
7.738768476,969.0
7.765029041,906.0
7.791289606,953.0
7.817550171,876.0
7.843810736,906.0
7.870071301,923.0
7.896331866,862.0
7.922592431,902.0
7.948852996,924.0
7.975113561,954.0
8.001374126,921.0
8.027634691,871.0
8.053895256,934.0
8.080155821,983.0
8.106416386,912.0
8.132676951,917.0
8.158937516,845.0
8.185198081,905.0
8.211458646,882.0
8.237719211,894.0
8.263979776,874.0
8.290240341,901.0
8.316500906,887.0
8.342761471,914.0
8.369022036,896.0
8.395282601,860.0
8.421543166,862.0
8.447803731,859.0
8.474064296,916.0
8.500324861,855.0
8.526585426,931.0
8.552845991,907.0
8.579106556,837.0
8.605367121,867.0
8.631627686,926.0
8.657888251,847.0
8.684148816,868.0
8.710409381,843.0
8.736669946,851.0
8.762930511,921.0
8.789191076,905.0
8.815451641,814.0
8.841712206,837.0
8.867972771,829.0
8.894233336,880.0
8.920493901,891.0
8.946754466,832.0
8.973015031,920.0
8.999275596,844.0
9.025536161,826.0
9.051796726,843.0
9.078057291,813.0
9.104317856,897.0
9.130578421,836.0
9.156838986,842.0
9.183099551,904.0
9.209360116,894.0
9.235620681,834.0
9.261881246,869.0
9.288141811,837.0
9.314402376,816.0
9.340662941,820.0
9.366923506,778.0
9.393184071,830.0
9.419444636,833.0
9.445705201,880.0
9.471965766,840.0
9.498226331,781.0
9.524486896,826.0
9.550747461,836.0
9.577008026,825.0
9.603268591,851.0
9.629529156,822.0
9.655789721,827.0
9.682050286,811.0
9.708310851,848.0
9.734571416,858.0
9.760831981,839.0
9.787092546,864.0
9.813353111,771.0
9.839613676,769.0
9.865874241,852.0
9.892134806,755.0
9.918395371,803.0
9.944655936,803.0
9.970916501,802.0
9.997177066,838.0
10.023437631,793.0
10.049698196,831.0
10.075958761,842.0
10.102219326,782.0
10.128479891,847.0
10.154740457,802.0
10.181001022,815.0
10.207261587,837.0
10.233522152,838.0
10.259782717,794.0
10.286043282,765.0
10.312303847,795.0
10.338564412,793.0
10.364824977,815.0
10.391085542,780.0
10.417346107,728.0
10.443606672,832.0
10.469867237,829.0
10.496127802,783.0
10.522388367,771.0
10.548648932,695.0
10.574909497,741.0
10.601170062,809.0
10.627430627,761.0
10.653691192,767.0
10.679951757,783.0
10.706212322,807.0
10.732472887,784.0
10.758733452,734.0
10.784994017,802.0
10.811254582,790.0
10.837515147,751.0
10.863775712,817.0
10.890036277,764.0
10.916296842,811.0
10.942557407,776.0
10.968817972,759.0
10.995078537,772.0
11.021339102,772.0
11.047599667,747.0
11.073860232,811.0
11.100120797,733.0
11.126381362,776.0
11.152641927,789.0
11.178902492,796.0
11.205163057,779.0
11.231423622,717.0
11.257684187,712.0
11.283944752,762.0
11.310205317,770.0
11.336465882,787.0
11.362726447,767.0
11.388987012,738.0
11.415247577,753.0
11.441508142,759.0
11.467768707,778.0
11.494029272,800.0
11.520289837,765.0
11.546550402,737.0
11.572810967,711.0
11.599071532,800.0
11.625332097,766.0
11.651592662,769.0
11.677853227,753.0
11.704113792,746.0
11.730374357,775.0
11.756634922,744.0
11.782895487,789.0
11.809156052,813.0
11.835416617,729.0
11.861677182,724.0
11.887937747,750.0
11.914198312,790.0
11.940458877,726.0
11.966719442,725.0
11.992980007,734.0
12.019240572,756.0
12.045501137,754.0
12.071761702,750.0
12.098022267,729.0
12.124282832,787.0
12.150543397,778.0
12.176803962,766.0
12.203064527,785.0
12.229325092,765.0
12.255585657,712.0
12.281846222,743.0
12.308106787,733.0
12.334367352,718.0
12.360627917,732.0
12.386888482,783.0
12.413149047,767.0
12.439409612,723.0
12.465670177,785.0
12.491930742,751.0
12.518191307,685.0
12.544451872,777.0
12.570712437,772.0
12.596973002,755.0
12.623233567,770.0
12.649494132,773.0
12.675754697,778.0
12.702015262,752.0
12.728275827,772.0
12.754536392,772.0
12.780796957,765.0
12.807057522,738.0
12.833318087,733.0
12.859578652,766.0
12.885839217,784.0
12.912099782,743.0
12.938360347,788.0
12.964620912,775.0
12.990881477,734.0
13.017142042,717.0
13.043402607,738.0
13.069663172,768.0
13.095923737,806.0
13.122184302,693.0
13.148444867,750.0
13.174705432,731.0
13.200965997,763.0
13.227226562,756.0
13.253487127,796.0
13.279747692,782.0
13.306008257,754.0
13.332268822,772.0
13.358529387,717.0
13.384789952,762.0
13.411050517,765.0
13.437311082,751.0
13.463571647,772.0
13.489832212,740.0
13.516092777,724.0
13.542353343,772.0
13.568613908,771.0
13.594874473,687.0
13.621135038,692.0
13.647395603,680.0
13.673656168,734.0
13.699916733,755.0
13.726177298,674.0
13.752437863,732.0
13.778698428,731.0
13.804958993,732.0
13.831219558,737.0
13.857480123,806.0
13.883740688,772.0
13.910001253,783.0
13.936261818,744.0
13.962522383,792.0
13.988782948,761.0
14.015043513,739.0
14.041304078,769.0
14.067564643,754.0
14.093825208,764.0
14.120085773,729.0
14.146346338,727.0
14.172606903,731.0
14.198867468,775.0
14.225128033,766.0
14.251388598,757.0
14.277649163,760.0
14.303909728,776.0
14.330170293,746.0
14.356430858,734.0
14.382691423,741.0
14.408951988,726.0
14.435212553,748.0
14.461473118,800.0
14.487733683,714.0
14.513994248,761.0
14.540254813,796.0
14.566515378,712.0
14.592775943,782.0
14.619036508,741.0
14.645297073,743.0
14.671557638,754.0
14.697818203,770.0
14.724078768,724.0
14.750339333,771.0
14.776599898,749.0
14.802860463,735.0
14.829121028,732.0
14.855381593,701.0
14.881642158,733.0
14.907902723,748.0
14.934163288,748.0
14.960423853,687.0
14.986684418,681.0
15.012944983,689.0
15.039205548,664.0
15.065466113,672.0
15.091726678,698.0
15.117987243,659.0
15.144247808,708.0
15.170508373,701.0
15.196768938,676.0
15.223029503,657.0
15.249290068,631.0
15.275550633,621.0
15.301811198,678.0
15.328071763,657.0
15.354332328,622.0
15.380592893,654.0
15.406853458,625.0
15.433114023,625.0
15.459374588,684.0
15.485635153,569.0
15.511895718,635.0
15.538156283,619.0
15.564416848,652.0
15.590677413,600.0
15.616937978,605.0
15.643198543,559.0
15.669459108,638.0
15.695719673,620.0
15.721980238,569.0
15.748240803,543.0
15.774501368,548.0
15.800761933,587.0
15.827022498,559.0
15.853283063,565.0
15.879543628,548.0
15.905804193,531.0
15.932064758,555.0
15.958325323,509.0
15.984585888,522.0
16.010846453,569.0
16.037107018,484.0
16.063367583,543.0
16.089628148,541.0
16.115888713,518.0
16.142149278,508.0
16.168409843,513.0
16.194670408,502.0
16.220930973,500.0
16.247191538,537.0
16.273452103,519.0
16.299712668,539.0
16.325973233,456.0
16.352233798,501.0
16.378494363,517.0
16.404754928,491.0
16.431015493,491.0
16.457276058,473.0
16.483536623,498.0
16.509797188,501.0
16.536057753,475.0
16.562318318,485.0
16.588578883,501.0
16.614839448,476.0
16.641100013,500.0
16.667360578,504.0
16.693621143,472.0
16.719881708,494.0
16.746142273,480.0
16.772402838,480.0
16.798663403,428.0
16.824923968,466.0
16.851184533,507.0
16.877445098,439.0
16.903705663,453.0
16.929966229,464.0
16.956226794,452.0
16.982487359,504.0
17.008747924,449.0
17.035008489,517.0
17.061269054,494.0
17.087529619,485.0
17.113790184,465.0
17.140050749,475.0
17.166311314,473.0
17.192571879,507.0
17.218832444,437.0
17.245093009,435.0
17.271353574,494.0
17.297614139,476.0
17.323874704,460.0
17.350135269,463.0
17.376395834,443.0
17.402656399,473.0
17.428916964,436.0
17.455177529,471.0
17.481438094,458.0
17.507698659,484.0
17.533959224,470.0
17.560219789,466.0
17.586480354,395.0
17.612740919,471.0
17.639001484,466.0
17.665262049,473.0
17.691522614,421.0
17.717783179,448.0
17.744043744,470.0
17.770304309,417.0
17.796564874,409.0
17.822825439,440.0
17.849086004,425.0
17.875346569,445.0
17.901607134,461.0
17.927867699,450.0
17.954128264,443.0
17.980388829,467.0
18.006649394,426.0
18.032909959,461.0
18.059170524,427.0
18.085431089,439.0
18.111691654,427.0
18.137952219,421.0
18.164212784,436.0
18.190473349,434.0
18.216733914,434.0
18.242994479,435.0
18.269255044,437.0
18.295515609,440.0
18.321776174,438.0
18.348036739,421.0
18.374297304,450.0
18.400557869,410.0
18.426818434,470.0
18.453078999,422.0
18.479339564,449.0
18.505600129,448.0
18.531860694,467.0
18.558121259,429.0
18.584381824,471.0
18.610642389,429.0
18.636902954,413.0
18.663163519,445.0
18.689424084,413.0
18.715684649,454.0
18.741945214,378.0
18.768205779,406.0
18.794466344,430.0
18.820726909,446.0
18.846987474,432.0
18.873248039,404.0
18.899508604,394.0
18.925769169,424.0
18.952029734,433.0
18.978290299,404.0
19.004550864,431.0
19.030811429,388.0
19.057071994,390.0
19.083332559,415.0
19.109593124,413.0
19.135853689,399.0
19.162114254,435.0
19.188374819,405.0
19.214635384,398.0
19.240895949,423.0
19.267156514,424.0
19.293417079,441.0
19.319677644,410.0
19.345938209,401.0
19.372198774,428.0
19.398459339,441.0
19.424719904,434.0
19.450980469,431.0
19.477241034,412.0
19.503501599,398.0
19.529762164,444.0
19.556022729,441.0
19.582283294,429.0
19.608543859,445.0
19.634804424,414.0
19.661064989,446.0
19.687325554,416.0
19.713586119,435.0
19.739846684,434.0
19.766107249,420.0
19.792367814,396.0
19.818628379,419.0
19.844888944,403.0
19.871149509,446.0
19.897410074,443.0
19.923670639,428.0
19.949931204,415.0
19.976191769,459.0
20.002452334,408.0
20.028712899,447.0
20.054973464,434.0
20.081234029,420.0
20.107494594,401.0
20.133755159,435.0
20.160015724,402.0
20.186276289,462.0
20.212536854,444.0
20.238797419,417.0
20.265057984,463.0
20.291318549,442.0
20.317579114,423.0
20.343839680,437.0
20.370100245,477.0
20.396360810,416.0
20.422621375,442.0
20.448881940,418.0
20.475142505,444.0
20.501403070,402.0
20.527663635,450.0
20.553924200,420.0
20.580184765,415.0
20.606445330,460.0
20.632705895,441.0
20.658966460,416.0
20.685227025,467.0
20.711487590,439.0
20.737748155,459.0
20.764008720,440.0
20.790269285,446.0
20.816529850,413.0
20.842790415,456.0
20.869050980,400.0
20.895311545,419.0
20.921572110,446.0
20.947832675,474.0
20.974093240,452.0
21.000353805,435.0
21.026614370,419.0
21.052874935,413.0
21.079135500,450.0
21.105396065,438.0
21.131656630,400.0
21.157917195,470.0
21.184177760,455.0
21.210438325,460.0
21.236698890,414.0
21.262959455,467.0
21.289220020,441.0
21.315480585,414.0
21.341741150,443.0
21.368001715,424.0
21.394262280,440.0
21.420522845,451.0
21.446783410,429.0
21.473043975,435.0
21.499304540,446.0
21.525565105,422.0
21.551825670,431.0
21.578086235,440.0
21.604346800,456.0
21.630607365,425.0
21.656867930,469.0
21.683128495,431.0
21.709389060,458.0
21.735649625,477.0
21.761910190,484.0
21.788170755,415.0
21.814431320,425.0
21.840691885,502.0
21.866952450,470.0
21.893213015,459.0
21.919473580,420.0
21.945734145,433.0
21.971994710,439.0
21.998255275,435.0
22.024515840,488.0
22.050776405,490.0
22.077036970,443.0
22.103297535,442.0
22.129558100,499.0
22.155818665,482.0
22.182079230,450.0
22.208339795,411.0
22.234600360,464.0
22.260860925,466.0
22.287121490,446.0
22.313382055,470.0
22.339642620,482.0
22.365903185,459.0
22.392163750,411.0
22.418424315,485.0
22.444684880,457.0
22.470945445,454.0
22.497206010,458.0
22.523466575,447.0
22.549727140,471.0
22.575987705,452.0
22.602248270,468.0
22.628508835,493.0
22.654769400,440.0
22.681029965,458.0
22.707290530,469.0
22.733551095,487.0
22.759811660,464.0
22.786072225,461.0
22.812332790,479.0
22.838593355,508.0
22.864853920,511.0
22.891114485,486.0
22.917375050,484.0
22.943635615,482.0
22.969896180,489.0
22.996156745,422.0
23.022417310,482.0
23.048677875,478.0
23.074938440,486.0
23.101199005,478.0
23.127459570,455.0
23.153720135,459.0
23.179980700,507.0
23.206241265,513.0
23.232501830,447.0
23.258762395,486.0
23.285022960,508.0
23.311283525,474.0
23.337544090,501.0
23.363804655,496.0
23.390065220,478.0
23.416325785,535.0
23.442586350,466.0
23.468846915,515.0
23.495107480,475.0
23.521368045,515.0
23.547628610,519.0
23.573889175,481.0
23.600149740,479.0
23.626410305,506.0
23.652670870,516.0
23.678931435,485.0
23.705192000,509.0
23.731452566,516.0
23.757713131,528.0
23.783973696,499.0
23.810234261,506.0
23.836494826,513.0
23.862755391,487.0
23.889015956,535.0
23.915276521,502.0
23.941537086,496.0
23.967797651,512.0
23.994058216,539.0
24.020318781,521.0
24.046579346,521.0
24.072839911,486.0
24.099100476,521.0
24.125361041,508.0
24.151621606,503.0
24.177882171,491.0
24.204142736,508.0
24.230403301,518.0
24.256663866,528.0
24.282924431,536.0
24.309184996,550.0
24.335445561,485.0
24.361706126,508.0
24.387966691,544.0
24.414227256,491.0
24.440487821,533.0
24.466748386,567.0
24.493008951,514.0
24.519269516,490.0
24.545530081,534.0
24.571790646,558.0
24.598051211,469.0
24.624311776,510.0
24.650572341,517.0
24.676832906,502.0
24.703093471,531.0
24.729354036,537.0
24.755614601,504.0
24.781875166,515.0
24.808135731,519.0
24.834396296,484.0
24.860656861,526.0
24.886917426,542.0
24.913177991,511.0
24.939438556,478.0
24.965699121,482.0
24.991959686,548.0
25.018220251,524.0
25.044480816,491.0
25.070741381,496.0
25.097001946,530.0
25.123262511,481.0
25.149523076,572.0
25.175783641,508.0
25.202044206,553.0
25.228304771,507.0
25.254565336,548.0
25.280825901,547.0
25.307086466,533.0
25.333347031,556.0
25.359607596,504.0
25.385868161,522.0
25.412128726,544.0
25.438389291,533.0
25.464649856,517.0
25.490910421,506.0
25.517170986,512.0
25.543431551,488.0
25.569692116,517.0
25.595952681,525.0
25.622213246,493.0
25.648473811,517.0
25.674734376,537.0
25.700994941,549.0
25.727255506,559.0
25.753516071,581.0
25.779776636,561.0
25.806037201,541.0
25.832297766,559.0
25.858558331,511.0
25.884818896,488.0
25.911079461,580.0
25.937340026,563.0
25.963600591,499.0
25.989861156,510.0
26.016121721,579.0
26.042382286,547.0
26.068642851,517.0
26.094903416,510.0
26.121163981,561.0
26.147424546,614.0
26.173685111,513.0
26.199945676,573.0
26.226206241,586.0
26.252466806,594.0
26.278727371,583.0
26.304987936,615.0
26.331248501,534.0
26.357509066,564.0
26.383769631,514.0
26.410030196,554.0
26.436290761,555.0
26.462551326,557.0
26.488811891,563.0
26.515072456,541.0
26.541333021,547.0
26.567593586,592.0
26.593854151,562.0
26.620114716,528.0
26.646375281,542.0
26.672635846,529.0
26.698896411,518.0
26.725156976,552.0
26.751417541,512.0
26.777678106,546.0
26.803938671,556.0
26.830199236,558.0
26.856459801,595.0
26.882720366,552.0
26.908980931,563.0
26.935241496,535.0
26.961502061,582.0
26.987762626,531.0
27.014023191,577.0
27.040283756,591.0
27.066544321,573.0
27.092804886,580.0
27.119065451,571.0
27.145326017,592.0
27.171586582,565.0
27.197847147,554.0
27.224107712,592.0
27.250368277,583.0
27.276628842,548.0
27.302889407,537.0
27.329149972,578.0
27.355410537,551.0
27.381671102,542.0
27.407931667,526.0
27.434192232,584.0
27.460452797,562.0
27.486713362,553.0
27.512973927,564.0
27.539234492,604.0
27.565495057,578.0
27.591755622,569.0
27.618016187,613.0
27.644276752,579.0
27.670537317,578.0
27.696797882,593.0
27.723058447,555.0
27.749319012,594.0
27.775579577,597.0
27.801840142,574.0
27.828100707,606.0
27.854361272,533.0
27.880621837,604.0
27.906882402,567.0
27.933142967,523.0
27.959403532,535.0
27.985664097,572.0
28.011924662,576.0
28.038185227,579.0
28.064445792,584.0
28.090706357,555.0
28.116966922,585.0
28.143227487,601.0
28.169488052,597.0
28.195748617,575.0
28.222009182,540.0
28.248269747,609.0
28.274530312,647.0
28.300790877,602.0
28.327051442,603.0
28.353312007,589.0
28.379572572,567.0
28.405833137,558.0
28.432093702,601.0
28.458354267,555.0
28.484614832,612.0
28.510875397,588.0
28.537135962,617.0
28.563396527,595.0
28.589657092,567.0
28.615917657,555.0
28.642178222,596.0
28.668438787,576.0
28.694699352,587.0
28.720959917,550.0
28.747220482,554.0
28.773481047,560.0
28.799741612,642.0
28.826002177,584.0
28.852262742,595.0
28.878523307,594.0
28.904783872,644.0
28.931044437,546.0
28.957305002,574.0
28.983565567,613.0
29.009826132,586.0
29.036086697,569.0
29.062347262,642.0
29.088607827,575.0
29.114868392,631.0
29.141128957,599.0
29.167389522,561.0
29.193650087,613.0
29.219910652,625.0
29.246171217,616.0
29.272431782,587.0
29.298692347,580.0
29.324952912,574.0
29.351213477,637.0
29.377474042,587.0
29.403734607,556.0
29.429995172,618.0
29.456255737,592.0
29.482516302,605.0
29.508776867,617.0
29.535037432,574.0
29.561297997,587.0
29.587558562,540.0
29.613819127,610.0
29.640079692,584.0
29.666340257,563.0
29.692600822,589.0
29.718861387,615.0
29.745121952,592.0
29.771382517,596.0
29.797643082,574.0
29.823903647,596.0
29.850164212,561.0
29.876424777,568.0
29.902685342,530.0
29.928945907,594.0
29.955206472,607.0
29.981467037,585.0
30.007727602,585.0
30.033988167,617.0
30.060248732,594.0
30.086509297,604.0
30.112769862,635.0
30.139030427,624.0
30.165290992,606.0
30.191551557,601.0
30.217812122,604.0
30.244072687,560.0
30.270333252,553.0
30.296593817,613.0
30.322854382,601.0
30.349114947,593.0
30.375375512,592.0
30.401636077,565.0
30.427896642,591.0
30.454157207,592.0
30.480417772,598.0
30.506678337,623.0
30.532938903,599.0
30.559199468,628.0
30.585460033,570.0
30.611720598,640.0
30.637981163,610.0
30.664241728,590.0
30.690502293,609.0
30.716762858,589.0
30.743023423,537.0
30.769283988,580.0
30.795544553,637.0
30.821805118,604.0
30.848065683,625.0
30.874326248,620.0
30.900586813,583.0
30.926847378,542.0
30.953107943,568.0
30.979368508,580.0
31.005629073,607.0
31.031889638,604.0
31.058150203,606.0
31.084410768,570.0
31.110671333,579.0
31.136931898,583.0
31.163192463,557.0
31.189453028,590.0
31.215713593,586.0
31.241974158,597.0
31.268234723,525.0
31.294495288,588.0
31.320755853,595.0
31.347016418,587.0
31.373276983,564.0
31.399537548,575.0
31.425798113,591.0
31.452058678,543.0
31.478319243,589.0
31.504579808,587.0
31.530840373,572.0
31.557100938,540.0
31.583361503,547.0
31.609622068,561.0
31.635882633,568.0
31.662143198,584.0
31.688403763,558.0
31.714664328,563.0
31.740924893,594.0
31.767185458,572.0
31.793446023,623.0
31.819706588,533.0
31.845967153,643.0
31.872227718,569.0
31.898488283,556.0
31.924748848,565.0
31.951009413,544.0
31.977269978,537.0
32.003530543,577.0
32.029791108,541.0
32.056051673,547.0
32.082312238,575.0
32.108572803,601.0
32.134833368,557.0
32.161093933,539.0
32.187354498,532.0
32.213615063,565.0
32.239875628,554.0
32.266136193,553.0
32.292396758,598.0
32.318657323,537.0
32.344917888,584.0
32.371178453,571.0
32.397439018,546.0
32.423699583,522.0
32.449960148,533.0
32.476220713,572.0
32.502481278,595.0
32.528741843,626.0
32.555002408,555.0
32.581262973,541.0
32.607523538,551.0
32.633784103,553.0
32.660044668,566.0
32.686305233,528.0
32.712565798,555.0
32.738826363,547.0
32.765086928,531.0
32.791347493,564.0
32.817608058,529.0
32.843868623,529.0
32.870129188,590.0
32.896389753,549.0
32.922650318,527.0
32.948910883,516.0
32.975171448,552.0
33.001432013,563.0
33.027692578,549.0
33.053953143,554.0
33.080213708,580.0
33.106474273,582.0
33.132734838,543.0
33.158995403,595.0
33.185255968,562.0
33.211516533,546.0
33.237777098,541.0
33.264037663,513.0
33.290298228,569.0
33.316558793,541.0
33.342819358,490.0
33.369079923,488.0
33.395340488,558.0
33.421601053,544.0
33.447861618,565.0
33.474122183,519.0
33.500382748,525.0
33.526643313,522.0
33.552903878,546.0
33.579164443,513.0
33.605425008,542.0
33.631685573,528.0
33.657946138,495.0
33.684206703,551.0
33.710467268,496.0
33.736727833,544.0
33.762988398,548.0
33.789248963,536.0
33.815509528,547.0
33.841770093,559.0
33.868030658,516.0
33.894291223,554.0
33.920551789,566.0
33.946812354,574.0
33.973072919,509.0
33.999333484,540.0
34.025594049,575.0
34.051854614,495.0
34.078115179,569.0
34.104375744,543.0
34.130636309,501.0
34.156896874,493.0
34.183157439,552.0
34.209418004,505.0
34.235678569,506.0
34.261939134,467.0
34.288199699,573.0
34.314460264,524.0
34.340720829,530.0
34.366981394,518.0
34.393241959,470.0
34.419502524,524.0
34.445763089,549.0
34.472023654,526.0
34.498284219,520.0
34.524544784,511.0
34.550805349,504.0
34.577065914,545.0
34.603326479,537.0
34.629587044,533.0
34.655847609,565.0
34.682108174,528.0
34.708368739,541.0
34.734629304,549.0
34.760889869,506.0
34.787150434,507.0
34.813410999,496.0
34.839671564,517.0
34.865932129,499.0
34.892192694,523.0
34.918453259,497.0
34.944713824,488.0
34.970974389,479.0
34.997234954,517.0
35.023495519,522.0
35.049756084,514.0
35.076016649,536.0
35.102277214,489.0
35.128537779,552.0
35.154798344,465.0
35.181058909,496.0
35.207319474,519.0
35.233580039,519.0
35.259840604,524.0
35.286101169,508.0
35.312361734,505.0
35.338622299,492.0
35.364882864,489.0
35.391143429,506.0
35.417403994,476.0
35.443664559,479.0
35.469925124,506.0
35.496185689,504.0
35.522446254,516.0
35.548706819,500.0
35.574967384,565.0
35.601227949,496.0
35.627488514,511.0
35.653749079,452.0
35.680009644,496.0
35.706270209,483.0
35.732530774,539.0
35.758791339,526.0
35.785051904,552.0
35.811312469,478.0
35.837573034,497.0
35.863833599,504.0
35.890094164,531.0
35.916354729,497.0
35.942615294,478.0
35.968875859,484.0
35.995136424,465.0
36.021396989,511.0
36.047657554,518.0
36.073918119,520.0
36.100178684,487.0
36.126439249,562.0
36.152699814,495.0
36.178960379,547.0
36.205220944,503.0
36.231481509,582.0
36.257742074,471.0
36.284002639,507.0
36.310263204,536.0
36.336523769,512.0
36.362784334,496.0
36.389044899,474.0
36.415305464,486.0
36.441566029,488.0
36.467826594,538.0
36.494087159,512.0
36.520347724,499.0
36.546608289,495.0
36.572868854,475.0
36.599129419,493.0
36.625389984,455.0
36.651650549,520.0
36.677911114,493.0
36.704171679,480.0
36.730432244,507.0
36.756692809,459.0
36.782953374,517.0
36.809213939,517.0
36.835474504,487.0
36.861735069,494.0
36.887995634,510.0
36.914256199,480.0
36.940516764,505.0
36.966777329,524.0
36.993037894,507.0
37.019298459,520.0
37.045559024,514.0
37.071819589,535.0
37.098080154,517.0
37.124340719,486.0
37.150601284,524.0
37.176861849,518.0
37.203122414,502.0
37.229382979,496.0
37.255643544,542.0
37.281904109,549.0
37.308164674,512.0
37.334425240,483.0
37.360685805,524.0
37.386946370,532.0
37.413206935,485.0
37.439467500,507.0
37.465728065,555.0
37.491988630,464.0
37.518249195,541.0
37.544509760,515.0
37.570770325,526.0
37.597030890,515.0
37.623291455,561.0
37.649552020,515.0
37.675812585,523.0
37.702073150,532.0
37.728333715,518.0
37.754594280,513.0
37.780854845,530.0
37.807115410,491.0
37.833375975,500.0
37.859636540,532.0
37.885897105,550.0
37.912157670,552.0
37.938418235,497.0
37.964678800,517.0
37.990939365,545.0
38.017199930,523.0
38.043460495,531.0
38.069721060,494.0
38.095981625,539.0
38.122242190,483.0
38.148502755,536.0
38.174763320,545.0
38.201023885,520.0
38.227284450,542.0
38.253545015,547.0
38.279805580,561.0
38.306066145,537.0
38.332326710,530.0
38.358587275,542.0
38.384847840,498.0
38.411108405,540.0
38.437368970,612.0
38.463629535,519.0
38.489890100,510.0
38.516150665,544.0
38.542411230,588.0
38.568671795,579.0
38.594932360,517.0
38.621192925,544.0
38.647453490,566.0
38.673714055,518.0
38.699974620,562.0
38.726235185,634.0
38.752495750,564.0
38.778756315,617.0
38.805016880,569.0
38.831277445,583.0
38.857538010,583.0
38.883798575,574.0
38.910059140,609.0
38.936319705,605.0
38.962580270,581.0
38.988840835,582.0
39.015101400,644.0
39.041361965,586.0
39.067622530,641.0
39.093883095,562.0
39.120143660,585.0
39.146404225,552.0
39.172664790,600.0
39.198925355,633.0
39.225185920,637.0
39.251446485,660.0
39.277707050,587.0
39.303967615,674.0
39.330228180,633.0
39.356488745,671.0
39.382749310,642.0
39.409009875,684.0
39.435270440,635.0
39.461531005,663.0
39.487791570,663.0
39.514052135,677.0
39.540312700,726.0
39.566573265,673.0
39.592833830,703.0
39.619094395,723.0
39.645354960,722.0
39.671615525,799.0
39.697876090,741.0
39.724136655,767.0
39.750397220,758.0
39.776657785,817.0
39.802918350,797.0
39.829178915,790.0
39.855439480,782.0
39.881700045,794.0
39.907960610,871.0
39.934221175,881.0
39.960481740,831.0
39.986742305,909.0
40.013002870,896.0
40.039263435,967.0
40.065524000,979.0
40.091784565,928.0
40.118045130,1018.0
40.144305695,939.0
40.170566260,983.0
40.196826825,987.0
40.223087390,1051.0
40.249347955,1070.0
40.275608520,1020.0
40.301869085,1014.0
40.328129650,1009.0
40.354390215,1022.0
40.380650780,1083.0
40.406911345,1051.0
40.433171910,1148.0
40.459432475,1085.0
40.485693040,1077.0
40.511953605,1095.0
40.538214170,1125.0
40.564474735,1062.0
40.590735300,1112.0
40.616995865,1061.0
40.643256430,1111.0
40.669516995,1079.0
40.695777560,1041.0
40.722038126,1080.0
40.748298691,1090.0
40.774559256,1002.0
40.800819821,1040.0
40.827080386,1123.0
40.853340951,1071.0
40.879601516,1085.0
40.905862081,1079.0
40.932122646,1064.0
40.958383211,996.0
40.984643776,1060.0
41.010904341,1052.0
41.037164906,1053.0
41.063425471,1112.0
41.089686036,1016.0
41.115946601,1014.0
41.142207166,987.0
41.168467731,1087.0
41.194728296,1033.0
41.220988861,1045.0
41.247249426,1061.0
41.273509991,1088.0
41.299770556,1072.0
41.326031121,1038.0
41.352291686,1026.0
41.378552251,1050.0
41.404812816,1059.0
41.431073381,1043.0
41.457333946,998.0
41.483594511,1012.0
41.509855076,1027.0
41.536115641,1050.0
41.562376206,1035.0
41.588636771,1057.0
41.614897336,897.0
41.641157901,1012.0
41.667418466,994.0
41.693679031,952.0
41.719939596,979.0
41.746200161,1009.0
41.772460726,1033.0
41.798721291,931.0
41.824981856,959.0
41.851242421,1044.0
41.877502986,977.0
41.903763551,992.0
41.930024116,940.0
41.956284681,951.0
41.982545246,955.0
42.008805811,944.0
42.035066376,962.0
42.061326941,929.0
42.087587506,936.0
42.113848071,926.0
42.140108636,890.0
42.166369201,979.0
42.192629766,855.0
42.218890331,902.0
42.245150896,908.0
42.271411461,942.0
42.297672026,878.0
42.323932591,930.0
42.350193156,939.0
42.376453721,873.0
42.402714286,822.0
42.428974851,897.0
42.455235416,867.0
42.481495981,876.0
42.507756546,869.0
42.534017111,867.0
42.560277676,855.0
42.586538241,873.0
42.612798806,818.0
42.639059371,833.0
42.665319936,802.0
42.691580501,812.0
42.717841066,787.0
42.744101631,808.0
42.770362196,806.0
42.796622761,876.0
42.822883326,817.0
42.849143891,876.0
42.875404456,814.0
42.901665021,768.0
42.927925586,776.0
42.954186151,846.0
42.980446716,809.0
43.006707281,817.0
43.032967846,763.0
43.059228411,740.0
43.085488976,803.0
43.111749541,803.0
43.138010106,759.0
43.164270671,786.0
43.190531236,778.0
43.216791801,762.0
43.243052366,772.0
43.269312931,696.0
43.295573496,771.0
43.321834061,775.0
43.348094626,752.0
43.374355191,810.0
43.400615756,720.0
43.426876321,727.0
43.453136886,775.0
43.479397451,758.0
43.505658016,717.0
43.531918581,699.0
43.558179146,738.0
43.584439711,709.0
43.610700276,733.0
43.636960841,721.0
43.663221406,714.0
43.689481971,749.0
43.715742536,698.0
43.742003101,678.0
43.768263666,670.0
43.794524231,737.0
43.820784796,704.0
43.847045361,669.0
43.873305926,698.0
43.899566491,668.0
43.925827056,709.0
43.952087621,738.0
43.978348186,679.0
44.004608751,681.0
44.030869316,625.0
44.057129881,664.0
44.083390446,628.0
44.109651011,662.0
44.135911577,641.0
44.162172142,683.0
44.188432707,696.0
44.214693272,619.0
44.240953837,649.0
44.267214402,656.0
44.293474967,604.0
44.319735532,652.0
44.345996097,640.0
44.372256662,643.0
44.398517227,637.0
44.424777792,651.0
44.451038357,655.0
44.477298922,633.0
44.503559487,656.0
44.529820052,612.0
44.556080617,620.0
44.582341182,604.0
44.608601747,624.0
44.634862312,614.0
44.661122877,613.0
44.687383442,604.0
44.713644007,604.0
44.739904572,629.0
44.766165137,585.0
44.792425702,597.0
44.818686267,574.0
44.844946832,616.0
44.871207397,580.0
44.897467962,555.0
44.923728527,564.0
44.949989092,611.0
44.976249657,535.0
45.002510222,632.0
45.028770787,578.0
45.055031352,609.0
45.081291917,572.0
45.107552482,618.0
45.133813047,581.0
45.160073612,600.0
45.186334177,550.0
45.212594742,603.0
45.238855307,579.0
45.265115872,542.0
45.291376437,546.0
45.317637002,639.0
45.343897567,569.0
45.370158132,543.0
45.396418697,578.0
45.422679262,535.0
45.448939827,561.0
45.475200392,521.0
45.501460957,574.0
45.527721522,605.0
45.553982087,485.0
45.580242652,573.0
45.606503217,569.0
45.632763782,594.0
45.659024347,541.0
45.685284912,538.0
45.711545477,495.0
45.737806042,548.0
45.764066607,533.0
45.790327172,507.0
45.816587737,515.0
45.842848302,514.0
45.869108867,495.0
45.895369432,514.0
45.921629997,568.0
45.947890562,501.0
45.974151127,547.0
46.000411692,511.0
46.026672257,577.0
46.052932822,486.0
46.079193387,517.0
46.105453952,492.0
46.131714517,478.0
46.157975082,501.0
46.184235647,521.0
46.210496212,459.0
46.236756777,460.0
46.263017342,493.0
46.289277907,481.0
46.315538472,513.0
46.341799037,522.0
46.368059602,484.0
46.394320167,515.0
46.420580732,450.0
46.446841297,474.0
46.473101862,497.0
46.499362427,482.0
46.525622992,478.0
46.551883557,479.0
46.578144122,491.0
46.604404687,464.0
46.630665252,462.0
46.656925817,488.0
46.683186382,473.0
46.709446947,442.0
46.735707512,476.0
46.761968077,490.0
46.788228642,490.0
46.814489207,448.0
46.840749772,503.0
46.867010337,523.0
46.893270902,464.0
46.919531467,462.0
46.945792032,493.0
46.972052597,480.0
46.998313162,473.0
47.024573727,450.0
47.050834292,469.0
47.077094857,455.0
47.103355422,418.0
47.129615987,426.0
47.155876552,465.0
47.182137117,442.0
47.208397682,437.0
47.234658247,431.0
47.260918812,472.0
47.287179377,435.0
47.313439942,454.0
47.339700507,446.0
47.365961072,444.0
47.392221637,426.0
47.418482202,434.0
47.444742767,441.0
47.471003332,466.0
47.497263897,429.0
47.523524463,446.0
47.549785028,444.0
47.576045593,465.0
47.602306158,443.0
47.628566723,443.0
47.654827288,439.0
47.681087853,463.0
47.707348418,459.0
47.733608983,480.0
47.759869548,433.0
47.786130113,440.0
47.812390678,423.0
47.838651243,431.0
47.864911808,407.0
47.891172373,410.0
47.917432938,405.0
47.943693503,390.0
47.969954068,472.0
47.996214633,400.0
48.022475198,423.0
48.048735763,429.0
48.074996328,458.0
48.101256893,397.0
48.127517458,458.0
48.153778023,455.0
48.180038588,422.0
48.206299153,404.0
48.232559718,402.0
48.258820283,461.0
48.285080848,390.0
48.311341413,438.0
48.337601978,435.0
48.363862543,369.0
48.390123108,422.0
48.416383673,407.0
48.442644238,409.0
48.468904803,427.0
48.495165368,438.0
48.521425933,403.0
48.547686498,413.0
48.573947063,405.0
48.600207628,399.0
48.626468193,411.0
48.652728758,361.0
48.678989323,406.0
48.705249888,410.0
48.731510453,404.0
48.757771018,357.0
48.784031583,398.0
48.810292148,370.0
48.836552713,348.0
48.862813278,431.0
48.889073843,399.0
48.915334408,368.0
48.941594973,386.0
48.967855538,399.0
48.994116103,383.0
49.020376668,362.0
49.046637233,408.0
49.072897798,405.0
49.099158363,390.0
49.125418928,399.0
49.151679493,353.0
49.177940058,374.0
49.204200623,358.0
49.230461188,371.0
49.256721753,373.0
49.282982318,386.0
49.309242883,381.0
49.335503448,368.0
49.361764013,395.0
49.388024578,338.0
49.414285143,361.0
49.440545708,359.0
49.466806273,389.0
49.493066838,403.0
49.519327403,355.0
49.545587968,371.0
49.571848533,389.0
49.598109098,416.0
49.624369663,368.0
49.650630228,351.0
49.676890793,349.0
49.703151358,353.0
49.729411923,370.0
49.755672488,358.0
49.781933053,360.0
49.808193618,359.0
49.834454183,350.0
49.860714748,415.0
49.886975313,360.0
49.913235878,377.0
49.939496443,407.0
49.965757008,370.0
49.992017573,320.0
50.018278138,378.0
50.044538703,371.0
50.070799268,372.0
50.097059833,342.0
50.123320398,356.0
50.149580963,361.0
50.175841528,361.0
50.202102093,339.0
50.228362658,389.0
50.254623223,374.0
50.280883788,346.0
50.307144353,364.0
50.333404918,396.0
50.359665483,350.0
50.385926048,329.0
50.412186613,358.0
50.438447178,367.0
50.464707743,380.0
50.490968308,375.0
50.517228873,403.0
50.543489438,381.0
50.569750003,349.0
50.596010568,409.0
50.622271133,356.0
50.648531698,325.0
50.674792263,343.0
50.701052828,365.0
50.727313393,364.0
50.753573958,341.0
50.779834523,343.0
50.806095088,313.0
50.832355653,316.0
50.858616218,338.0
50.884876783,332.0
50.911137349,335.0
50.937397914,369.0
50.963658479,398.0
50.989919044,386.0
51.016179609,329.0
51.042440174,345.0
51.068700739,371.0
51.094961304,340.0
51.121221869,351.0
51.147482434,349.0
51.173742999,330.0
51.200003564,353.0
51.226264129,354.0
51.252524694,365.0
51.278785259,383.0
51.305045824,362.0
51.331306389,330.0
51.357566954,365.0
51.383827519,345.0
51.410088084,347.0
51.436348649,328.0
51.462609214,352.0
51.488869779,323.0
51.515130344,347.0
51.541390909,334.0
51.567651474,296.0
51.593912039,365.0
51.620172604,352.0
51.646433169,335.0
51.672693734,338.0
51.698954299,321.0
51.725214864,348.0
51.751475429,334.0
51.777735994,297.0
51.803996559,324.0
51.830257124,312.0
51.856517689,345.0
51.882778254,341.0
51.909038819,332.0
51.935299384,337.0
51.961559949,332.0
51.987820514,334.0
52.014081079,325.0
52.040341644,321.0
52.066602209,332.0
52.092862774,298.0
52.119123339,361.0
52.145383904,329.0
52.171644469,335.0
52.197905034,343.0
52.224165599,341.0
52.250426164,341.0
52.276686729,302.0
52.302947294,321.0
52.329207859,332.0
52.355468424,356.0
52.381728989,354.0
52.407989554,321.0
52.434250119,336.0
52.460510684,312.0
52.486771249,320.0
52.513031814,327.0
52.539292379,340.0
52.565552944,360.0
52.591813509,339.0
52.618074074,346.0
52.644334639,312.0
52.670595204,326.0
52.696855769,344.0
52.723116334,334.0
52.749376899,344.0
52.775637464,326.0
52.801898029,330.0
52.828158594,340.0
52.854419159,338.0
52.880679724,312.0
52.906940289,332.0
52.933200854,320.0
52.959461419,331.0
52.985721984,341.0
53.011982549,331.0
53.038243114,336.0
53.064503679,356.0
53.090764244,340.0
53.117024809,352.0
53.143285374,296.0
53.169545939,335.0
53.195806504,355.0
53.222067069,311.0
53.248327634,319.0
53.274588199,333.0
53.300848764,336.0
53.327109329,289.0
53.353369894,299.0
53.379630459,339.0
53.405891024,310.0
53.432151589,327.0
53.458412154,332.0
53.484672719,340.0
53.510933284,315.0
53.537193849,357.0
53.563454414,348.0
53.589714979,308.0
53.615975544,330.0
53.642236109,320.0
53.668496674,298.0
53.694757239,330.0
53.721017804,306.0
53.747278369,336.0
53.773538934,290.0
53.799799499,342.0
53.826060064,355.0
53.852320629,343.0
53.878581194,321.0
53.904841759,335.0
53.931102324,319.0
53.957362889,320.0
53.983623454,313.0
54.009884019,323.0
54.036144584,352.0
54.062405149,338.0
54.088665714,314.0
54.114926279,322.0
54.141186844,345.0
54.167447409,302.0
54.193707974,336.0
54.219968539,332.0
54.246229104,335.0
54.272489669,339.0
54.298750234,317.0
54.325010800,341.0
54.351271365,336.0
54.377531930,294.0
54.403792495,306.0
54.430053060,326.0
54.456313625,319.0
54.482574190,282.0
54.508834755,322.0
54.535095320,328.0
54.561355885,318.0
54.587616450,343.0
54.613877015,314.0
54.640137580,299.0
54.666398145,320.0
54.692658710,322.0
54.718919275,310.0
54.745179840,326.0
54.771440405,295.0
54.797700970,312.0
54.823961535,317.0
54.850222100,302.0
54.876482665,343.0
54.902743230,307.0
54.929003795,337.0
54.955264360,326.0
54.981524925,311.0
55.007785490,318.0
55.034046055,273.0
55.060306620,324.0
55.086567185,321.0
55.112827750,307.0
55.139088315,315.0
55.165348880,307.0
55.191609445,317.0
55.217870010,332.0
55.244130575,307.0
55.270391140,331.0
55.296651705,320.0
55.322912270,336.0
55.349172835,330.0
55.375433400,301.0
55.401693965,341.0
55.427954530,326.0
55.454215095,289.0
55.480475660,293.0
55.506736225,316.0
55.532996790,306.0
55.559257355,309.0
55.585517920,317.0
55.611778485,304.0
55.638039050,305.0
55.664299615,314.0
55.690560180,333.0
55.716820745,301.0
55.743081310,328.0
55.769341875,335.0
55.795602440,262.0
55.821863005,337.0
55.848123570,293.0
55.874384135,298.0
55.900644700,309.0
55.926905265,327.0
55.953165830,327.0
55.979426395,291.0
56.005686960,315.0
56.031947525,324.0
56.058208090,336.0
56.084468655,316.0
56.110729220,345.0
56.136989785,296.0
56.163250350,317.0
56.189510915,313.0
56.215771480,328.0
56.242032045,330.0
56.268292610,321.0
56.294553175,306.0
56.320813740,307.0
56.347074305,301.0
56.373334870,305.0
56.399595435,321.0
56.425856000,324.0
56.452116565,293.0
56.478377130,287.0
56.504637695,348.0
56.530898260,299.0
56.557158825,281.0
56.583419390,307.0
56.609679955,322.0
56.635940520,292.0
56.662201085,308.0
56.688461650,319.0
56.714722215,301.0
56.740982780,289.0
56.767243345,322.0
56.793503910,320.0
56.819764475,309.0
56.846025040,313.0
56.872285605,330.0
56.898546170,316.0
56.924806735,305.0
56.951067300,315.0
56.977327865,283.0
57.003588430,281.0
57.029848995,323.0
57.056109560,310.0
57.082370125,293.0
57.108630690,319.0
57.134891255,333.0
57.161151820,299.0
57.187412385,286.0
57.213672950,310.0
57.239933515,347.0
57.266194080,328.0
57.292454645,314.0
57.318715210,299.0
57.344975775,320.0
57.371236340,341.0
57.397496905,284.0
57.423757470,336.0
57.450018035,324.0
57.476278600,307.0
57.502539165,314.0
57.528799730,317.0
57.555060295,318.0
57.581320860,308.0
57.607581425,338.0
57.633841990,275.0
57.660102555,305.0
57.686363120,296.0
57.712623686,302.0
57.738884251,307.0
57.765144816,364.0
57.791405381,309.0
57.817665946,324.0
57.843926511,317.0
57.870187076,296.0
57.896447641,323.0
57.922708206,312.0
57.948968771,311.0
57.975229336,313.0
58.001489901,293.0
58.027750466,285.0
58.054011031,319.0
58.080271596,308.0
58.106532161,309.0
58.132792726,307.0
58.159053291,279.0
58.185313856,289.0
58.211574421,311.0
58.237834986,310.0
58.264095551,300.0
58.290356116,306.0
58.316616681,296.0
58.342877246,279.0
58.369137811,310.0
58.395398376,328.0
58.421658941,292.0
58.447919506,283.0
58.474180071,358.0
58.500440636,292.0
58.526701201,308.0
58.552961766,277.0
58.579222331,308.0
58.605482896,313.0
58.631743461,317.0
58.658004026,290.0
58.684264591,325.0
58.710525156,311.0
58.736785721,308.0
58.763046286,289.0
58.789306851,284.0
58.815567416,304.0
58.841827981,346.0
58.868088546,306.0
58.894349111,304.0
58.920609676,320.0
58.946870241,300.0
58.973130806,306.0
58.999391371,285.0
59.025651936,289.0
59.051912501,291.0
59.078173066,289.0
59.104433631,303.0
59.130694196,271.0
59.156954761,292.0
59.183215326,298.0
59.209475891,293.0
59.235736456,295.0
59.261997021,304.0
59.288257586,279.0
59.314518151,274.0
59.340778716,293.0
59.367039281,338.0
59.393299846,286.0
59.419560411,306.0
59.445820976,292.0
59.472081541,310.0
59.498342106,292.0
59.524602671,331.0
59.550863236,290.0
59.577123801,292.0
59.603384366,310.0
59.629644931,275.0
59.655905496,309.0
59.682166061,304.0
59.708426626,340.0
59.734687191,314.0
59.760947756,348.0
59.787208321,328.0
59.813468886,287.0
59.839729451,319.0
59.865990016,290.0
59.892250581,279.0
59.918511146,297.0
59.944771711,317.0
59.971032276,324.0
59.997292841,305.0
60.023553406,288.0
60.049813971,297.0
60.076074536,263.0
60.102335101,302.0
60.128595666,307.0
60.154856231,295.0
60.181116796,277.0
60.207377361,264.0
60.233637926,284.0
60.259898491,313.0
60.286159056,310.0
60.312419621,310.0
60.338680186,309.0
60.364940751,318.0
60.391201316,303.0
60.417461881,282.0
60.443722446,328.0
60.469983011,272.0
60.496243576,276.0
60.522504141,320.0
60.548764706,328.0
60.575025271,281.0
60.601285836,310.0
60.627546401,301.0
60.653806966,299.0
60.680067531,286.0
60.706328096,274.0
60.732588661,320.0
60.758849226,306.0
60.785109791,299.0
60.811370356,267.0
60.837630921,305.0
60.863891486,279.0
60.890152051,293.0
60.916412616,289.0
60.942673181,290.0
60.968933746,305.0
60.995194311,311.0
61.021454876,299.0
61.047715441,261.0
61.073976006,330.0
61.100236571,267.0
61.126497137,273.0
61.152757702,281.0
61.179018267,266.0
61.205278832,288.0
61.231539397,305.0
61.257799962,295.0
61.284060527,298.0
61.310321092,298.0
61.336581657,290.0
61.362842222,303.0
61.389102787,273.0
61.415363352,325.0
61.441623917,274.0
61.467884482,325.0
61.494145047,295.0
61.520405612,283.0
61.546666177,322.0
61.572926742,282.0
61.599187307,307.0
61.625447872,291.0
61.651708437,296.0
61.677969002,287.0
61.704229567,282.0
61.730490132,317.0
61.756750697,299.0
61.783011262,311.0
61.809271827,306.0
61.835532392,285.0
61.861792957,284.0
61.888053522,274.0
61.914314087,286.0
61.940574652,280.0
61.966835217,287.0
61.993095782,304.0
62.019356347,316.0
62.045616912,293.0
62.071877477,254.0
62.098138042,275.0
62.124398607,289.0
62.150659172,297.0
62.176919737,319.0
62.203180302,325.0
62.229440867,279.0
62.255701432,309.0
62.281961997,281.0
62.308222562,315.0
62.334483127,283.0
62.360743692,275.0
62.387004257,297.0
62.413264822,257.0
62.439525387,266.0
62.465785952,264.0
62.492046517,293.0
62.518307082,297.0
62.544567647,281.0
62.570828212,286.0
62.597088777,276.0
62.623349342,289.0
62.649609907,310.0
62.675870472,283.0
62.702131037,283.0
62.728391602,261.0
62.754652167,283.0
62.780912732,280.0
62.807173297,272.0
62.833433862,285.0
62.859694427,278.0
62.885954992,291.0
62.912215557,281.0
62.938476122,300.0
62.964736687,282.0
62.990997252,280.0
63.017257817,312.0
63.043518382,282.0
63.069778947,281.0
63.096039512,261.0
63.122300077,281.0
63.148560642,243.0
63.174821207,300.0
63.201081772,305.0
63.227342337,308.0
63.253602902,310.0
63.279863467,279.0
63.306124032,289.0
63.332384597,276.0
63.358645162,267.0
63.384905727,270.0
63.411166292,252.0
63.437426857,271.0
63.463687422,288.0
63.489947987,286.0
63.516208552,286.0
63.542469117,275.0
63.568729682,292.0
63.594990247,319.0
63.621250812,329.0
63.647511377,299.0
63.673771942,306.0
63.700032507,341.0
63.726293072,273.0
63.752553637,277.0
63.778814202,280.0
63.805074767,260.0
63.831335332,305.0
63.857595897,264.0
63.883856462,264.0
63.910117027,296.0
63.936377592,281.0
63.962638157,253.0
63.988898722,287.0
64.015159287,302.0
64.041419852,264.0
64.067680417,235.0
64.093940982,259.0
64.120201547,322.0
64.146462112,295.0
64.172722677,253.0
64.198983242,273.0
64.225243807,264.0
64.251504372,284.0
64.277764937,274.0
64.304025502,310.0
64.330286067,296.0
64.356546632,272.0
64.382807197,271.0
64.409067762,271.0
64.435328327,273.0
64.461588892,298.0
64.487849457,271.0
64.514110023,267.0
64.540370588,267.0
64.566631153,286.0
64.592891718,273.0
64.619152283,273.0
64.645412848,287.0
64.671673413,277.0
64.697933978,253.0
64.724194543,295.0
64.750455108,255.0
64.776715673,267.0
64.802976238,275.0
64.829236803,291.0
64.855497368,266.0
64.881757933,279.0
64.908018498,293.0
64.934279063,256.0
64.960539628,252.0
64.986800193,290.0
65.013060758,290.0
65.039321323,316.0
65.065581888,303.0
65.091842453,276.0
65.118103018,248.0
65.144363583,270.0
65.170624148,257.0
65.196884713,271.0
65.223145278,254.0
65.249405843,288.0
65.275666408,242.0
65.301926973,275.0
65.328187538,237.0
65.354448103,284.0
65.380708668,257.0
65.406969233,236.0
65.433229798,274.0
65.459490363,251.0
65.485750928,271.0
65.512011493,272.0
65.538272058,275.0
65.564532623,277.0
65.590793188,266.0
65.617053753,253.0
65.643314318,250.0
65.669574883,256.0
65.695835448,234.0
65.722096013,246.0
65.748356578,264.0
65.774617143,282.0
65.800877708,263.0
65.827138273,254.0
65.853398838,256.0
65.879659403,292.0
65.905919968,266.0
65.932180533,267.0
65.958441098,267.0
65.984701663,278.0
66.010962228,270.0
66.037222793,261.0
66.063483358,302.0
66.089743923,278.0
66.116004488,266.0
66.142265053,262.0
66.168525618,291.0
66.194786183,243.0
66.221046748,267.0
66.247307313,231.0
66.273567878,267.0
66.299828443,273.0
66.326089008,291.0
66.352349573,280.0
66.378610138,238.0
66.404870703,256.0
66.431131268,273.0
66.457391833,279.0
66.483652398,268.0
66.509912963,273.0
66.536173528,283.0
66.562434093,301.0
66.588694658,253.0
66.614955223,253.0
66.641215788,297.0
66.667476353,249.0
66.693736918,249.0
66.719997483,269.0
66.746258048,269.0
66.772518613,242.0
66.798779178,275.0
66.825039743,247.0
66.851300308,240.0
66.877560873,265.0
66.903821438,253.0
66.930082003,254.0
66.956342568,241.0
66.982603133,271.0
67.008863698,245.0
67.035124263,237.0
67.061384828,247.0
67.087645393,243.0
67.113905958,251.0
67.140166523,252.0
67.166427088,265.0
67.192687653,276.0
67.218948218,261.0
67.245208783,270.0
67.271469348,266.0
67.297729913,297.0
67.323990478,254.0
67.350251043,249.0
67.376511608,266.0
67.402772173,262.0
67.429032738,302.0
67.455293303,264.0
67.481553868,253.0
67.507814433,264.0
67.534074998,264.0
67.560335563,229.0
67.586596128,240.0
67.612856693,293.0
67.639117258,230.0
67.665377823,245.0
67.691638388,237.0
67.717898953,253.0
67.744159518,258.0
67.770420083,269.0
67.796680648,229.0
67.822941213,262.0
67.849201778,253.0
67.875462343,260.0
67.901722909,237.0
67.927983474,272.0
67.954244039,239.0
67.980504604,267.0
68.006765169,250.0
68.033025734,278.0
68.059286299,267.0
68.085546864,259.0
68.111807429,222.0
68.138067994,275.0
68.164328559,241.0
68.190589124,236.0
68.216849689,237.0
68.243110254,257.0
68.269370819,231.0
68.295631384,250.0
68.321891949,229.0
68.348152514,224.0
68.374413079,245.0
68.400673644,253.0
68.426934209,240.0
68.453194774,266.0
68.479455339,256.0
68.505715904,263.0
68.531976469,247.0
68.558237034,233.0
68.584497599,263.0
68.610758164,239.0
68.637018729,245.0
68.663279294,259.0
68.689539859,234.0
68.715800424,245.0
68.742060989,253.0
68.768321554,251.0
68.794582119,251.0
68.820842684,239.0
68.847103249,249.0
68.873363814,271.0
68.899624379,254.0
68.925884944,271.0
68.952145509,223.0
68.978406074,264.0
69.004666639,285.0
69.030927204,254.0
69.057187769,272.0
69.083448334,229.0
69.109708899,250.0
69.135969464,267.0
69.162230029,290.0
69.188490594,271.0
69.214751159,249.0
69.241011724,248.0
69.267272289,251.0
69.293532854,253.0
69.319793419,252.0
69.346053984,263.0
69.372314549,224.0
69.398575114,244.0
69.424835679,239.0
69.451096244,212.0
69.477356809,223.0
69.503617374,279.0
69.529877939,230.0
69.556138504,229.0
69.582399069,265.0
69.608659634,247.0
69.634920199,262.0
69.661180764,235.0
69.687441329,274.0
69.713701894,240.0
69.739962459,229.0
69.766223024,229.0
69.792483589,267.0
69.818744154,249.0
69.845004719,259.0
69.871265284,240.0
69.897525849,266.0
69.923786414,238.0
69.950046979,249.0
69.976307544,251.0
70.002568109,260.0
70.028828674,261.0
70.055089239,241.0
70.081349804,237.0
70.107610369,239.0
70.133870934,240.0
70.160131499,230.0
70.186392064,222.0
70.212652629,255.0
70.238913194,245.0
70.265173759,229.0
70.291434324,267.0
70.317694889,260.0
70.343955454,241.0
70.370216019,280.0
70.396476584,301.0
70.422737149,217.0
70.448997714,230.0
70.475258279,217.0
70.501518844,241.0
70.527779409,265.0
70.554039974,271.0
70.580300539,267.0
70.606561104,272.0
70.632821669,236.0
70.659082234,263.0
70.685342799,254.0
70.711603364,269.0
70.737863929,241.0
70.764124494,265.0
70.790385059,291.0
70.816645624,237.0
70.842906189,244.0
70.869166754,257.0
70.895427319,268.0
70.921687884,214.0
70.947948449,234.0
70.974209014,263.0
71.000469579,252.0
71.026730144,256.0
71.052990709,260.0
71.079251274,259.0
71.105511839,249.0
71.131772404,257.0
71.158032969,246.0
71.184293534,263.0
71.210554099,254.0
71.236814664,222.0
71.263075229,216.0
71.289335794,246.0
71.315596360,241.0
71.341856925,270.0
71.368117490,226.0
71.394378055,239.0
71.420638620,244.0
71.446899185,247.0
71.473159750,218.0
71.499420315,222.0
71.525680880,234.0
71.551941445,286.0
71.578202010,261.0
71.604462575,288.0
71.630723140,300.0
71.656983705,229.0
71.683244270,233.0
71.709504835,257.0
71.735765400,259.0
71.762025965,264.0
71.788286530,263.0
71.814547095,251.0
71.840807660,260.0
71.867068225,226.0
71.893328790,263.0
71.919589355,275.0
71.945849920,241.0
71.972110485,251.0
71.998371050,287.0
72.024631615,233.0
72.050892180,247.0
72.077152745,278.0
72.103413310,266.0
72.129673875,275.0
72.155934440,246.0
72.182195005,283.0
72.208455570,271.0
72.234716135,261.0
72.260976700,224.0
72.287237265,266.0
72.313497830,267.0
72.339758395,265.0
72.366018960,243.0
72.392279525,275.0
72.418540090,296.0
72.444800655,284.0
72.471061220,253.0
72.497321785,271.0
72.523582350,272.0
72.549842915,237.0
72.576103480,271.0
72.602364045,273.0
72.628624610,273.0
72.654885175,268.0
72.681145740,290.0
72.707406305,304.0
72.733666870,279.0
72.759927435,296.0
72.786188000,249.0
72.812448565,283.0
72.838709130,290.0
72.864969695,281.0
72.891230260,321.0
72.917490825,278.0
72.943751390,291.0
72.970011955,298.0
72.996272520,319.0
73.022533085,330.0
73.048793650,311.0
73.075054215,303.0
73.101314780,313.0
73.127575345,320.0
73.153835910,291.0
73.180096475,303.0
73.206357040,278.0
73.232617605,314.0
73.258878170,291.0
73.285138735,270.0
73.311399300,296.0
73.337659865,308.0
73.363920430,313.0
73.390180995,312.0
73.416441560,310.0
73.442702125,311.0
73.468962690,298.0
73.495223255,300.0
73.521483820,298.0
73.547744385,297.0
73.574004950,303.0
73.600265515,310.0
73.626526080,286.0
73.652786645,292.0
73.679047210,300.0
73.705307775,284.0
73.731568340,306.0
73.757828905,302.0
73.784089470,294.0
73.810350035,277.0
73.836610600,282.0
73.862871165,276.0
73.889131730,287.0
73.915392295,273.0
73.941652860,261.0
73.967913425,289.0
73.994173990,291.0
74.020434555,271.0
74.046695120,297.0
74.072955685,274.0
74.099216250,294.0
74.125476815,263.0
74.151737380,282.0
74.177997945,245.0
74.204258510,256.0
74.230519075,278.0
74.256779640,269.0
74.283040205,257.0
74.309300770,284.0
74.335561335,306.0
74.361821900,275.0
74.388082465,233.0
74.414343030,294.0
74.440603595,277.0
74.466864160,263.0
74.493124725,281.0
74.519385290,272.0
74.545645855,244.0
74.571906420,243.0
74.598166985,260.0
74.624427550,268.0
74.650688115,266.0
74.676948680,271.0
74.703209246,261.0
74.729469811,236.0
74.755730376,264.0
74.781990941,260.0
74.808251506,248.0
74.834512071,263.0
74.860772636,264.0
74.887033201,254.0
74.913293766,205.0
74.939554331,249.0
74.965814896,235.0
74.992075461,227.0
75.018336026,255.0
75.044596591,244.0
75.070857156,246.0
75.097117721,250.0
75.123378286,252.0
75.149638851,255.0
75.175899416,252.0
75.202159981,271.0
75.228420546,272.0
75.254681111,241.0
75.280941676,244.0
75.307202241,262.0
75.333462806,224.0
75.359723371,240.0
75.385983936,240.0
75.412244501,205.0
75.438505066,240.0
75.464765631,248.0
75.491026196,231.0
75.517286761,238.0
75.543547326,218.0
75.569807891,250.0
75.596068456,235.0
75.622329021,233.0
75.648589586,242.0
75.674850151,233.0
75.701110716,194.0
75.727371281,234.0
75.753631846,262.0
75.779892411,244.0
75.806152976,246.0
75.832413541,213.0
75.858674106,222.0
75.884934671,217.0
75.911195236,244.0
75.937455801,239.0
75.963716366,233.0
75.989976931,240.0
76.016237496,241.0
76.042498061,203.0
76.068758626,225.0
76.095019191,204.0
76.121279756,230.0
76.147540321,224.0
76.173800886,233.0
76.200061451,261.0
76.226322016,217.0
76.252582581,260.0
76.278843146,227.0
76.305103711,226.0
76.331364276,247.0
76.357624841,241.0
76.383885406,241.0
76.410145971,239.0
76.436406536,231.0
76.462667101,234.0
76.488927666,232.0
76.515188231,223.0
76.541448796,216.0
76.567709361,222.0
76.593969926,222.0
76.620230491,225.0
76.646491056,241.0
76.672751621,241.0
76.699012186,208.0
76.725272751,235.0
76.751533316,203.0
76.777793881,223.0
76.804054446,230.0
76.830315011,245.0
76.856575576,224.0
76.882836141,231.0
76.909096706,245.0
76.935357271,230.0
76.961617836,225.0
76.987878401,235.0
77.014138966,220.0
77.040399531,235.0
77.066660096,244.0
77.092920661,252.0
77.119181226,254.0
77.145441791,213.0
77.171702356,205.0
77.197962921,218.0
77.224223486,243.0
77.250484051,224.0
77.276744616,199.0
77.303005181,231.0
77.329265746,192.0
77.355526311,239.0
77.381786876,219.0
77.408047441,224.0
77.434308006,237.0
77.460568571,234.0
77.486829136,218.0
77.513089701,239.0
77.539350266,241.0
77.565610831,227.0
77.591871396,197.0
77.618131961,218.0
77.644392526,222.0
77.670653091,192.0
77.696913656,209.0
77.723174221,209.0
77.749434786,209.0
77.775695351,229.0
77.801955916,214.0
77.828216481,225.0
77.854477046,229.0
77.880737611,224.0
77.906998176,251.0
77.933258741,227.0
77.959519306,241.0
77.985779871,201.0
78.012040436,238.0
78.038301001,210.0
78.064561566,248.0
78.090822131,203.0
78.117082697,209.0
78.143343262,216.0
78.169603827,207.0
78.195864392,205.0
78.222124957,205.0
78.248385522,224.0
78.274646087,247.0
78.300906652,210.0
78.327167217,224.0
78.353427782,241.0
78.379688347,208.0
78.405948912,252.0
78.432209477,240.0
78.458470042,219.0
78.484730607,222.0
78.510991172,233.0
78.537251737,234.0
78.563512302,234.0
78.589772867,203.0
78.616033432,233.0
78.642293997,245.0
78.668554562,230.0
78.694815127,210.0
78.721075692,212.0
78.747336257,227.0
78.773596822,195.0
78.799857387,207.0
78.826117952,252.0
78.852378517,215.0
78.878639082,218.0
78.904899647,206.0
78.931160212,218.0
78.957420777,241.0
78.983681342,215.0
79.009941907,189.0
79.036202472,209.0
79.062463037,265.0
79.088723602,240.0
79.114984167,212.0
79.141244732,198.0
79.167505297,208.0
79.193765862,226.0
79.220026427,237.0
79.246286992,223.0
79.272547557,229.0
79.298808122,205.0
79.325068687,218.0
79.351329252,228.0
79.377589817,223.0
79.403850382,173.0
79.430110947,246.0
79.456371512,219.0
79.482632077,233.0
79.508892642,203.0
79.535153207,216.0
79.561413772,221.0
79.587674337,216.0
79.613934902,198.0
79.640195467,198.0
79.666456032,209.0
79.692716597,174.0
79.718977162,175.0
79.745237727,219.0
79.771498292,217.0
79.797758857,194.0
79.824019422,223.0
79.850279987,219.0
79.876540552,194.0
79.902801117,232.0
79.929061682,220.0
79.955322247,217.0
79.981582812,212.0
80.007843377,240.0
80.034103942,198.0
80.060364507,197.0
80.086625072,203.0
80.112885637,224.0
80.139146202,207.0
80.165406767,205.0
80.191667332,224.0
80.217927897,217.0
80.244188462,209.0
80.270449027,224.0
80.296709592,201.0
80.322970157,212.0
80.349230722,203.0
80.375491287,215.0
80.401751852,223.0
80.428012417,232.0
80.454272982,198.0
80.480533547,221.0
80.506794112,226.0
80.533054677,210.0
80.559315242,207.0
80.585575807,202.0
80.611836372,218.0
80.638096937,213.0
80.664357502,223.0
80.690618067,210.0
80.716878632,218.0
80.743139197,190.0
80.769399762,203.0
80.795660327,214.0
80.821920892,176.0
80.848181457,189.0
80.874442022,197.0
80.900702587,210.0
80.926963152,193.0
80.953223717,232.0
80.979484282,240.0
81.005744847,195.0
81.032005412,228.0
81.058265977,199.0
81.084526542,246.0
81.110787107,196.0
81.137047672,196.0
81.163308237,209.0
81.189568802,217.0
81.215829367,217.0
81.242089932,189.0
81.268350497,215.0
81.294611062,226.0
81.320871627,209.0
81.347132192,241.0
81.373392757,217.0
81.399653322,201.0
81.425913887,188.0
81.452174452,218.0
81.478435017,207.0
81.504695583,211.0
81.530956148,199.0
81.557216713,204.0
81.583477278,194.0
81.609737843,199.0
81.635998408,222.0
81.662258973,220.0
81.688519538,197.0
81.714780103,203.0
81.741040668,214.0
81.767301233,199.0
81.793561798,205.0
81.819822363,201.0
81.846082928,213.0
81.872343493,233.0
81.898604058,195.0
81.924864623,193.0
81.951125188,208.0
81.977385753,233.0
82.003646318,241.0
82.029906883,194.0
82.056167448,210.0
82.082428013,209.0
82.108688578,193.0
82.134949143,198.0
82.161209708,206.0
82.187470273,206.0
82.213730838,220.0
82.239991403,215.0
82.266251968,222.0
82.292512533,198.0
82.318773098,201.0
82.345033663,200.0
82.371294228,193.0
82.397554793,190.0
82.423815358,170.0
82.450075923,188.0
82.476336488,212.0
82.502597053,194.0
82.528857618,217.0
82.555118183,227.0
82.581378748,200.0
82.607639313,193.0
82.633899878,222.0
82.660160443,205.0
82.686421008,194.0
82.712681573,212.0
82.738942138,197.0
82.765202703,223.0
82.791463268,208.0
82.817723833,189.0
82.843984398,218.0
82.870244963,201.0
82.896505528,197.0
82.922766093,217.0
82.949026658,220.0
82.975287223,181.0
83.001547788,217.0
83.027808353,177.0
83.054068918,168.0
83.080329483,199.0
83.106590048,204.0
83.132850613,190.0
83.159111178,188.0
83.185371743,204.0
83.211632308,192.0
83.237892873,188.0
83.264153438,199.0
83.290414003,197.0
83.316674568,216.0
83.342935133,187.0
83.369195698,207.0
83.395456263,202.0
83.421716828,189.0
83.447977393,186.0
83.474237958,199.0
83.500498523,205.0
83.526759088,206.0
83.553019653,201.0
83.579280218,177.0
83.605540783,206.0
83.631801348,198.0
83.658061913,174.0
83.684322478,193.0
83.710583043,212.0
83.736843608,213.0
83.763104173,225.0
83.789364738,184.0
83.815625303,230.0
83.841885868,214.0
83.868146433,210.0
83.894406998,221.0
83.920667563,198.0
83.946928128,212.0
83.973188693,226.0
83.999449258,196.0
84.025709823,192.0
84.051970388,216.0
84.078230953,195.0
84.104491518,190.0
84.130752083,203.0
84.157012648,221.0
84.183273213,207.0
84.209533778,200.0
84.235794343,209.0
84.262054908,205.0
84.288315473,228.0
84.314576038,218.0
84.340836603,218.0
84.367097168,190.0
84.393357733,202.0
84.419618298,209.0
84.445878863,209.0
84.472139428,162.0
84.498399993,210.0
84.524660558,192.0
84.550921123,184.0
84.577181688,201.0
84.603442253,198.0
84.629702818,208.0
84.655963383,206.0
84.682223948,191.0
84.708484513,198.0
84.734745078,191.0
84.761005643,181.0
84.787266208,199.0
84.813526773,192.0
84.839787338,222.0
84.866047903,221.0
84.892308469,197.0
84.918569034,197.0
84.944829599,199.0
84.971090164,195.0
84.997350729,209.0
85.023611294,195.0
85.049871859,184.0
85.076132424,206.0
85.102392989,176.0
85.128653554,209.0
85.154914119,196.0
85.181174684,204.0
85.207435249,180.0
85.233695814,205.0
85.259956379,162.0
85.286216944,171.0
85.312477509,193.0
85.338738074,213.0
85.364998639,189.0
85.391259204,182.0
85.417519769,183.0
85.443780334,234.0
85.470040899,194.0
85.496301464,189.0
85.522562029,177.0
85.548822594,188.0
85.575083159,214.0
85.601343724,222.0
85.627604289,180.0
85.653864854,196.0
85.680125419,189.0
85.706385984,180.0
85.732646549,185.0
85.758907114,225.0
85.785167679,199.0
85.811428244,210.0
85.837688809,194.0
85.863949374,188.0
85.890209939,209.0
85.916470504,187.0
85.942731069,196.0
85.968991634,169.0
85.995252199,202.0
86.021512764,203.0
86.047773329,188.0
86.074033894,192.0
86.100294459,188.0
86.126555024,175.0
86.152815589,180.0
86.179076154,196.0
86.205336719,182.0
86.231597284,190.0
86.257857849,202.0
86.284118414,204.0
86.310378979,210.0
86.336639544,200.0
86.362900109,183.0
86.389160674,203.0
86.415421239,187.0
86.441681804,171.0
86.467942369,193.0
86.494202934,211.0
86.520463499,176.0
86.546724064,191.0
86.572984629,193.0
86.599245194,220.0
86.625505759,221.0
86.651766324,165.0
86.678026889,198.0
86.704287454,197.0
86.730548019,183.0
86.756808584,197.0
86.783069149,210.0
86.809329714,207.0
86.835590279,200.0
86.861850844,176.0
86.888111409,210.0
86.914371974,203.0
86.940632539,204.0
86.966893104,202.0
86.993153669,214.0
87.019414234,216.0
87.045674799,188.0
87.071935364,187.0
87.098195929,196.0
87.124456494,173.0
87.150717059,179.0
87.176977624,190.0
87.203238189,186.0
87.229498754,191.0
87.255759319,185.0
87.282019884,202.0
87.308280449,191.0
87.334541014,209.0
87.360801579,181.0
87.387062144,215.0
87.413322709,205.0
87.439583274,211.0
87.465843839,196.0
87.492104404,190.0
87.518364969,204.0
87.544625534,207.0
87.570886099,197.0
87.597146664,170.0
87.623407229,202.0
87.649667794,219.0
87.675928359,202.0
87.702188924,203.0
87.728449489,186.0
87.754710054,211.0
87.780970619,194.0
87.807231184,204.0
87.833491749,184.0
87.859752314,202.0
87.886012879,229.0
87.912273444,187.0
87.938534009,201.0
87.964794574,210.0
87.991055139,186.0
88.017315704,209.0
88.043576269,213.0
88.069836834,172.0
88.096097399,200.0
88.122357964,187.0
88.148618529,192.0
88.174879094,203.0
88.201139659,195.0
88.227400224,194.0
88.253660789,191.0
88.279921354,182.0
88.306181920,194.0
88.332442485,191.0
88.358703050,206.0
88.384963615,190.0
88.411224180,188.0
88.437484745,187.0
88.463745310,195.0
88.490005875,172.0
88.516266440,200.0
88.542527005,223.0
88.568787570,212.0
88.595048135,202.0
88.621308700,181.0
88.647569265,200.0
88.673829830,169.0
88.700090395,216.0
88.726350960,204.0
88.752611525,189.0
88.778872090,198.0
88.805132655,224.0
88.831393220,197.0
88.857653785,224.0
88.883914350,194.0
88.910174915,187.0
88.936435480,208.0
88.962696045,198.0
88.988956610,188.0
89.015217175,192.0
89.041477740,208.0
89.067738305,206.0
89.093998870,184.0
89.120259435,228.0
89.146520000,218.0
89.172780565,192.0
89.199041130,210.0
89.225301695,216.0
89.251562260,203.0
89.277822825,207.0
89.304083390,177.0
89.330343955,219.0
89.356604520,193.0
89.382865085,184.0
89.409125650,196.0
89.435386215,198.0
89.461646780,207.0
89.487907345,210.0
89.514167910,192.0
89.540428475,175.0
89.566689040,189.0
89.592949605,209.0
89.619210170,186.0
89.645470735,202.0
89.671731300,211.0
89.697991865,190.0
89.724252430,195.0
89.750512995,221.0
89.776773560,185.0
89.803034125,212.0
89.829294690,184.0
89.855555255,192.0
89.881815820,194.0
89.908076385,172.0
89.934336950,203.0
89.960597515,198.0
89.986858080,194.0
