[Measurement conditions]
Sample identification,
Comment - 1,"Configuration=Stage for flat samples/holders, Owner=User-1, Creation date=3/27/2015 11:56:23 AM"
Comment - 2,"Goniometer=Theta/Theta; Minimum step size 2Theta:0.0001; Minimum step size Omega:0.0001"
Comment - 3,"Sample stage=Stage for flat samples/holders"
Comment - 4,"Diffractometer system=EMPYREAN"
Comment - 5,"Measurement program=C:\PANalytical\Data Collector\Programs\Powder - Copy.xrdmp, Identifier={BEEA10DD-8FD6-4721-8940-4FBC5A4262A1}"
Comment - 6,"Fine Calibration Offset for 2Theta = -0.0130 deg"
Comment - 7,"Fine Calibration Offset for Omega = -0.0070 deg"
Anode material,Cu
K-Alpha1 wavelength,1.5405980
K-Alpha2 wavelength,1.5444260
Ratio K-Alpha2/K-Alpha1,0.500
Divergence slit,Fixed,0.38mm
Monochromator used,NO
Generator voltage, 40
Tube current, 35
File date and time,24/Jul/2017 16:01
Unit cell,
h k l, 0 0 0
Scan axis,Gonio
Scan range,5.020799997,89.999988363
Scan step size,0.0262606
No. of points, 3236
Scan type,CONTINUOUS
Time per step,18.615
[Scan points]
Angle,Intensity
5.033930280,1689.0
5.060190845,1706.0
5.086451410,1681.0
5.112711975,1796.0
5.138972540,1696.0
5.165233105,1726.0
5.191493670,1817.0
5.217754235,1847.0
5.244014800,1666.0
5.270275365,1809.0
5.296535930,1771.0
5.322796495,1735.0
5.349057060,1765.0
5.375317625,1806.0
5.401578190,1680.0
5.427838755,1785.0
5.454099320,1772.0
5.480359885,1750.0
5.506620450,1703.0
5.532881015,1835.0
5.559141580,1765.0
5.585402145,1820.0
5.611662710,1766.0
5.637923275,1771.0
5.664183840,1758.0
5.690444405,1876.0
5.716704970,1768.0
5.742965535,1695.0
5.769226100,1802.0
5.795486665,1693.0
5.821747230,1891.0
5.848007795,1751.0
5.874268360,1775.0
5.900528925,1864.0
5.926789490,1752.0
5.953050055,1777.0
5.979310620,1765.0
6.005571185,1794.0
6.031831750,1733.0
6.058092315,1811.0
6.084352880,1870.0
6.110613445,1834.0
6.136874010,1815.0
6.163134575,1786.0
6.189395140,1832.0
6.215655705,1845.0
6.241916270,1818.0
6.268176835,1812.0
6.294437400,1790.0
6.320697965,1860.0
6.346958530,1803.0
6.373219095,1828.0
6.399479660,1851.0
6.425740225,1800.0
6.452000790,1694.0
6.478261355,1885.0
6.504521920,1932.0
6.530782485,1829.0
6.557043050,1829.0
6.583303615,1825.0
6.609564180,1785.0
6.635824745,1860.0
6.662085310,1844.0
6.688345875,1813.0
6.714606440,1814.0
6.740867006,1822.0
6.767127571,1755.0
6.793388136,1786.0
6.819648701,1838.0
6.845909266,1789.0
6.872169831,1851.0
6.898430396,1812.0
6.924690961,1862.0
6.950951526,1806.0
6.977212091,1840.0
7.003472656,1830.0
7.029733221,1924.0
7.055993786,1766.0
7.082254351,1825.0
7.108514916,1839.0
7.134775481,1876.0
7.161036046,1810.0
7.187296611,1826.0
7.213557176,1955.0
7.239817741,1850.0
7.266078306,1825.0
7.292338871,1942.0
7.318599436,1928.0
7.344860001,1879.0
7.371120566,1904.0
7.397381131,1963.0
7.423641696,1785.0
7.449902261,1856.0
7.476162826,1949.0
7.502423391,1886.0
7.528683956,1951.0
7.554944521,1945.0
7.581205086,1955.0
7.607465651,2021.0
7.633726216,1959.0
7.659986781,1967.0
7.686247346,1925.0
7.712507911,1912.0
7.738768476,2045.0
7.765029041,2061.0
7.791289606,1988.0
7.817550171,1982.0
7.843810736,1972.0
7.870071301,2018.0
7.896331866,1998.0
7.922592431,1986.0
7.948852996,1904.0
7.975113561,1951.0
8.001374126,2027.0
8.027634691,2084.0
8.053895256,2049.0
8.080155821,2055.0
8.106416386,1988.0
8.132676951,1981.0
8.158937516,1988.0
8.185198081,2059.0
8.211458646,2021.0
8.237719211,2148.0
8.263979776,2007.0
8.290240341,2042.0
8.316500906,2162.0
8.342761471,2020.0
8.369022036,2091.0
8.395282601,2092.0
8.421543166,2091.0
8.447803731,2067.0
8.474064296,2148.0
8.500324861,2147.0
8.526585426,2050.0
8.552845991,2159.0
8.579106556,2081.0
8.605367121,2133.0
8.631627686,2256.0
8.657888251,2154.0
8.684148816,2220.0
8.710409381,2259.0
8.736669946,2240.0
8.762930511,2248.0
8.789191076,2245.0
8.815451641,2239.0
8.841712206,2285.0
8.867972771,2220.0
8.894233336,2278.0
8.920493901,2334.0
8.946754466,2346.0
8.973015031,2306.0
8.999275596,2282.0
9.025536161,2452.0
9.051796726,2348.0
9.078057291,2388.0
9.104317856,2417.0
9.130578421,2447.0
9.156838986,2489.0
9.183099551,2396.0
9.209360116,2552.0
9.235620681,2578.0
9.261881246,2565.0
9.288141811,2549.0
9.314402376,2483.0
9.340662941,2506.0
9.366923506,2594.0
9.393184071,2511.0
9.419444636,2518.0
9.445705201,2506.0
9.471965766,2517.0
9.498226331,2439.0
9.524486896,2359.0
9.550747461,2536.0
9.577008026,2505.0
9.603268591,2463.0
9.629529156,2485.0
9.655789721,2433.0
9.682050286,2421.0
9.708310851,2363.0
9.734571416,2406.0
9.760831981,2400.0
9.787092546,2328.0
9.813353111,2404.0
9.839613676,2382.0
9.865874241,2240.0
9.892134806,2295.0
9.918395371,2271.0
9.944655936,2222.0
9.970916501,2307.0
9.997177066,2112.0
10.023437631,2164.0
10.049698196,2182.0
10.075958761,2190.0
10.102219326,2153.0
10.128479891,2142.0
10.154740457,2077.0
10.181001022,2092.0
10.207261587,2072.0
10.233522152,2026.0
10.259782717,1969.0
10.286043282,2026.0
10.312303847,2036.0
10.338564412,1941.0
10.364824977,1947.0
10.391085542,1952.0
10.417346107,2035.0
10.443606672,1888.0
10.469867237,1890.0
10.496127802,1980.0
10.522388367,1872.0
10.548648932,1877.0
10.574909497,1955.0
10.601170062,1809.0
10.627430627,1799.0
10.653691192,1754.0
10.679951757,1792.0
10.706212322,1815.0
10.732472887,1717.0
10.758733452,1783.0
10.784994017,1704.0
10.811254582,1759.0
10.837515147,1793.0
10.863775712,1651.0
10.890036277,1790.0
10.916296842,1719.0
10.942557407,1676.0
10.968817972,1696.0
10.995078537,1630.0
11.021339102,1510.0
11.047599667,1624.0
11.073860232,1629.0
11.100120797,1578.0
11.126381362,1567.0
11.152641927,1639.0
11.178902492,1550.0
11.205163057,1627.0
11.231423622,1613.0
11.257684187,1473.0
11.283944752,1568.0
11.310205317,1595.0
11.336465882,1522.0
11.362726447,1462.0
11.388987012,1506.0
11.415247577,1574.0
11.441508142,1553.0
11.467768707,1485.0
11.494029272,1551.0
11.520289837,1507.0
11.546550402,1495.0
11.572810967,1451.0
11.599071532,1491.0
11.625332097,1516.0
11.651592662,1505.0
11.677853227,1475.0
11.704113792,1462.0
11.730374357,1522.0
11.756634922,1486.0
11.782895487,1411.0
11.809156052,1379.0
11.835416617,1474.0
11.861677182,1447.0
11.887937747,1423.0
11.914198312,1419.0
11.940458877,1405.0
11.966719442,1442.0
11.992980007,1406.0
12.019240572,1412.0
12.045501137,1373.0
12.071761702,1385.0
12.098022267,1343.0
12.124282832,1401.0
12.150543397,1434.0
12.176803962,1424.0
12.203064527,1331.0
12.229325092,1422.0
12.255585657,1394.0
12.281846222,1315.0
12.308106787,1424.0
12.334367352,1427.0
12.360627917,1334.0
12.386888482,1439.0
12.413149047,1396.0
12.439409612,1309.0
12.465670177,1392.0
12.491930742,1330.0
12.518191307,1348.0
12.544451872,1330.0
12.570712437,1363.0
12.596973002,1273.0
12.623233567,1316.0
12.649494132,1324.0
12.675754697,1389.0
12.702015262,1347.0
12.728275827,1303.0
12.754536392,1415.0
12.780796957,1335.0
12.807057522,1351.0
12.833318087,1303.0
12.859578652,1347.0
12.885839217,1308.0
12.912099782,1276.0
12.938360347,1364.0
12.964620912,1265.0
12.990881477,1335.0
13.017142042,1284.0
13.043402607,1261.0
13.069663172,1312.0
13.095923737,1263.0
13.122184302,1283.0
13.148444867,1221.0
13.174705432,1298.0
13.200965997,1262.0
13.227226562,1330.0
13.253487127,1311.0
13.279747692,1238.0
13.306008257,1185.0
13.332268822,1263.0
13.358529387,1335.0
13.384789952,1331.0
13.411050517,1218.0
13.437311082,1266.0
13.463571647,1288.0
13.489832212,1255.0
13.516092777,1256.0
13.542353343,1252.0
13.568613908,1322.0
13.594874473,1239.0
13.621135038,1218.0
13.647395603,1204.0
13.673656168,1240.0
13.699916733,1224.0
13.726177298,1232.0
13.752437863,1278.0
13.778698428,1247.0
13.804958993,1282.0
13.831219558,1174.0
13.857480123,1250.0
13.883740688,1246.0
13.910001253,1201.0
13.936261818,1275.0
13.962522383,1219.0
13.988782948,1268.0
14.015043513,1203.0
14.041304078,1279.0
14.067564643,1253.0
14.093825208,1247.0
14.120085773,1290.0
14.146346338,1200.0
14.172606903,1228.0
14.198867468,1223.0
14.225128033,1259.0
14.251388598,1233.0
14.277649163,1289.0
14.303909728,1217.0
14.330170293,1208.0
14.356430858,1294.0
14.382691423,1182.0
14.408951988,1246.0
14.435212553,1193.0
14.461473118,1226.0
14.487733683,1265.0
14.513994248,1236.0
14.540254813,1226.0
14.566515378,1217.0
14.592775943,1167.0
14.619036508,1193.0
14.645297073,1235.0
14.671557638,1207.0
14.697818203,1076.0
14.724078768,1196.0
14.750339333,1180.0
14.776599898,1182.0
14.802860463,1203.0
14.829121028,1162.0
14.855381593,1198.0
14.881642158,1157.0
14.907902723,1138.0
14.934163288,1168.0
14.960423853,1129.0
14.986684418,1173.0
15.012944983,1190.0
15.039205548,1161.0
15.065466113,1170.0
15.091726678,1100.0
15.117987243,1171.0
15.144247808,1206.0
15.170508373,1159.0
15.196768938,1236.0
15.223029503,1196.0
15.249290068,1176.0
15.275550633,1194.0
15.301811198,1152.0
15.328071763,1224.0
15.354332328,1166.0
15.380592893,1092.0
15.406853458,1145.0
15.433114023,1172.0
15.459374588,1159.0
15.485635153,1111.0
15.511895718,1119.0
15.538156283,1153.0
15.564416848,1120.0
15.590677413,1097.0
15.616937978,1135.0
15.643198543,1094.0
15.669459108,1122.0
15.695719673,1088.0
15.721980238,1144.0
15.748240803,1184.0
15.774501368,1045.0
15.800761933,1053.0
15.827022498,1124.0
15.853283063,1037.0
15.879543628,1041.0
15.905804193,1032.0
15.932064758,1065.0
15.958325323,1051.0
15.984585888,1062.0
16.010846453,1118.0
16.037107018,1095.0
16.063367583,1015.0
16.089628148,1088.0
16.115888713,1072.0
16.142149278,1065.0
16.168409843,1043.0
16.194670408,1059.0
16.220930973,1064.0
16.247191538,1092.0
16.273452103,1059.0
16.299712668,1008.0
16.325973233,1063.0
16.352233798,1057.0
16.378494363,1058.0
16.404754928,1031.0
16.431015493,1071.0
16.457276058,1126.0
16.483536623,1064.0
16.509797188,1015.0
16.536057753,1051.0
16.562318318,1073.0
16.588578883,1097.0
16.614839448,975.0
16.641100013,1071.0
16.667360578,993.0
16.693621143,1092.0
16.719881708,990.0
16.746142273,977.0
16.772402838,1050.0
16.798663403,1020.0
16.824923968,1028.0
16.851184533,1041.0
16.877445098,1067.0
16.903705663,1008.0
16.929966229,1032.0
16.956226794,1129.0
16.982487359,1006.0
17.008747924,1039.0
17.035008489,1065.0
17.061269054,972.0
17.087529619,1033.0
17.113790184,1063.0
17.140050749,1033.0
17.166311314,1006.0
17.192571879,1046.0
17.218832444,1021.0
17.245093009,999.0
17.271353574,1034.0
17.297614139,1068.0
17.323874704,1058.0
17.350135269,1033.0
17.376395834,1007.0
17.402656399,971.0
17.428916964,1023.0
17.455177529,1069.0
17.481438094,1043.0
17.507698659,995.0
17.533959224,1066.0
17.560219789,1053.0
17.586480354,1055.0
17.612740919,1026.0
17.639001484,1049.0
17.665262049,1057.0
17.691522614,954.0
17.717783179,1030.0
17.744043744,1020.0
17.770304309,1086.0
17.796564874,1029.0
17.822825439,1051.0
17.849086004,1107.0
17.875346569,1041.0
17.901607134,982.0
17.927867699,1064.0
17.954128264,1025.0
17.980388829,1051.0
18.006649394,1008.0
18.032909959,1041.0
18.059170524,1024.0
18.085431089,1028.0
18.111691654,1048.0
18.137952219,1006.0
18.164212784,1071.0
18.190473349,1113.0
18.216733914,1002.0
18.242994479,958.0
18.269255044,1059.0
18.295515609,981.0
18.321776174,990.0
18.348036739,971.0
18.374297304,1012.0
18.400557869,1035.0
18.426818434,1062.0
18.453078999,1107.0
18.479339564,1059.0
18.505600129,1019.0
18.531860694,1064.0
18.558121259,990.0
18.584381824,1024.0
18.610642389,1074.0
18.636902954,1024.0
18.663163519,1004.0
18.689424084,1072.0
18.715684649,1045.0
18.741945214,1018.0
18.768205779,1027.0
18.794466344,934.0
18.820726909,1016.0
18.846987474,1020.0
18.873248039,942.0
18.899508604,1051.0
18.925769169,1041.0
18.952029734,1028.0
18.978290299,1031.0
19.004550864,1051.0
19.030811429,1041.0
19.057071994,1045.0
19.083332559,1041.0
19.109593124,1084.0
19.135853689,1062.0
19.162114254,923.0
19.188374819,1062.0
19.214635384,1052.0
19.240895949,1082.0
19.267156514,1074.0
19.293417079,1071.0
19.319677644,1069.0
19.345938209,1044.0
19.372198774,1069.0
19.398459339,1018.0
19.424719904,1073.0
19.450980469,1056.0
19.477241034,1045.0
19.503501599,1070.0
19.529762164,1043.0
19.556022729,1069.0
19.582283294,1038.0
19.608543859,1090.0
19.634804424,996.0
19.661064989,1082.0
19.687325554,1048.0
19.713586119,1111.0
19.739846684,1065.0
19.766107249,1053.0
19.792367814,1118.0
19.818628379,1079.0
19.844888944,1019.0
19.871149509,1098.0
19.897410074,1092.0
19.923670639,1015.0
19.949931204,1062.0
19.976191769,1020.0
20.002452334,1079.0
20.028712899,977.0
20.054973464,1093.0
20.081234029,1079.0
20.107494594,1143.0
20.133755159,1042.0
20.160015724,961.0
20.186276289,1035.0
20.212536854,1026.0
20.238797419,1076.0
20.265057984,1057.0
20.291318549,1110.0
20.317579114,992.0
20.343839680,1041.0
20.370100245,1052.0
20.396360810,1050.0
20.422621375,1053.0
20.448881940,1062.0
20.475142505,1105.0
20.501403070,1077.0
20.527663635,1080.0
20.553924200,1053.0
20.580184765,1146.0
20.606445330,1062.0
20.632705895,1103.0
20.658966460,1080.0
20.685227025,1045.0
20.711487590,1064.0
20.737748155,1061.0
20.764008720,1091.0
20.790269285,1110.0
20.816529850,1076.0
20.842790415,1100.0
20.869050980,1122.0
20.895311545,1089.0
20.921572110,1085.0
20.947832675,1097.0
20.974093240,1096.0
21.000353805,1102.0
21.026614370,1072.0
21.052874935,1090.0
21.079135500,1073.0
21.105396065,1096.0
21.131656630,1048.0
21.157917195,1107.0
21.184177760,1052.0
21.210438325,1081.0
21.236698890,1160.0
21.262959455,1137.0
21.289220020,1075.0
21.315480585,1146.0
21.341741150,1071.0
21.368001715,1057.0
21.394262280,1075.0
21.420522845,1049.0
21.446783410,1118.0
21.473043975,1087.0
21.499304540,1046.0
21.525565105,1114.0
21.551825670,1130.0
21.578086235,1113.0
21.604346800,1086.0
21.630607365,1078.0
21.656867930,1158.0
21.683128495,1005.0
21.709389060,1123.0
21.735649625,1075.0
21.761910190,1084.0
21.788170755,1051.0
21.814431320,1120.0
21.840691885,1086.0
21.866952450,1107.0
21.893213015,1121.0
21.919473580,1035.0
21.945734145,1095.0
21.971994710,1092.0
21.998255275,1087.0
22.024515840,1109.0
22.050776405,1107.0
22.077036970,1085.0
22.103297535,1108.0
22.129558100,1180.0
22.155818665,1086.0
22.182079230,1093.0
22.208339795,1032.0
22.234600360,1129.0
22.260860925,1091.0
22.287121490,1122.0
22.313382055,1100.0
22.339642620,1159.0
22.365903185,1068.0
22.392163750,1103.0
22.418424315,1105.0
22.444684880,1173.0
22.470945445,1059.0
22.497206010,1168.0
22.523466575,1174.0
22.549727140,1118.0
22.575987705,1093.0
22.602248270,1131.0
22.628508835,1115.0
22.654769400,1126.0
22.681029965,1139.0
22.707290530,1101.0
22.733551095,1102.0
22.759811660,1115.0
22.786072225,1106.0
22.812332790,1089.0
22.838593355,1055.0
22.864853920,1078.0
22.891114485,1147.0
22.917375050,1084.0
22.943635615,1092.0
22.969896180,1106.0
22.996156745,1162.0
23.022417310,1161.0
23.048677875,1126.0
23.074938440,1146.0
23.101199005,1153.0
23.127459570,1061.0
23.153720135,1140.0
23.179980700,1153.0
23.206241265,1084.0
23.232501830,1154.0
23.258762395,1080.0
23.285022960,1134.0
23.311283525,1086.0
23.337544090,1088.0
23.363804655,1116.0
23.390065220,1140.0
23.416325785,1177.0
23.442586350,1073.0
23.468846915,1100.0
23.495107480,1143.0
23.521368045,1185.0
23.547628610,1136.0
23.573889175,1079.0
23.600149740,1179.0
23.626410305,1134.0
23.652670870,1113.0
23.678931435,1073.0
23.705192000,1119.0
23.731452566,1176.0
23.757713131,1150.0
23.783973696,1124.0
23.810234261,1072.0
23.836494826,1148.0
23.862755391,1135.0
23.889015956,1146.0
23.915276521,1140.0
23.941537086,1123.0
23.967797651,1106.0
23.994058216,1108.0
24.020318781,1124.0
24.046579346,1145.0
24.072839911,1105.0
24.099100476,1158.0
24.125361041,1136.0
24.151621606,1112.0
24.177882171,1118.0
24.204142736,1127.0
24.230403301,1139.0
24.256663866,1130.0
24.282924431,1152.0
24.309184996,1118.0
24.335445561,1156.0
24.361706126,1121.0
24.387966691,1180.0
24.414227256,1174.0
24.440487821,1099.0
24.466748386,1155.0
24.493008951,1110.0
24.519269516,1149.0
24.545530081,1138.0
24.571790646,1160.0
24.598051211,1134.0
24.624311776,1134.0
24.650572341,1188.0
24.676832906,1096.0
24.703093471,1243.0
24.729354036,1108.0
24.755614601,1072.0
24.781875166,1114.0
24.808135731,1127.0
24.834396296,1059.0
24.860656861,1140.0
24.886917426,1071.0
24.913177991,1151.0
24.939438556,1081.0
24.965699121,1112.0
24.991959686,1092.0
25.018220251,1133.0
25.044480816,1094.0
25.070741381,1143.0
25.097001946,1148.0
25.123262511,1127.0
25.149523076,1155.0
25.175783641,1154.0
25.202044206,1102.0
25.228304771,1094.0
25.254565336,1105.0
25.280825901,1107.0
25.307086466,1103.0
25.333347031,1159.0
25.359607596,1120.0
25.385868161,1161.0
25.412128726,1223.0
25.438389291,1110.0
25.464649856,1159.0
25.490910421,1161.0
25.517170986,1104.0
25.543431551,1160.0
25.569692116,1152.0
25.595952681,1121.0
25.622213246,1144.0
25.648473811,1130.0
25.674734376,1206.0
25.700994941,1135.0
25.727255506,1138.0
25.753516071,1136.0
25.779776636,1160.0
25.806037201,1103.0
25.832297766,1122.0
25.858558331,1141.0
25.884818896,1154.0
25.911079461,1127.0
25.937340026,1147.0
25.963600591,1132.0
25.989861156,1105.0
26.016121721,1095.0
26.042382286,1063.0
26.068642851,1127.0
26.094903416,1147.0
26.121163981,1139.0
26.147424546,1081.0
26.173685111,1163.0
26.199945676,1151.0
26.226206241,1123.0
26.252466806,1169.0
26.278727371,1154.0
26.304987936,1157.0
26.331248501,1200.0
26.357509066,1127.0
26.383769631,1133.0
26.410030196,1140.0
26.436290761,1241.0
26.462551326,1236.0
26.488811891,1206.0
26.515072456,1255.0
26.541333021,1267.0
26.567593586,1195.0
26.593854151,1326.0
26.620114716,1313.0
26.646375281,1245.0
26.672635846,1170.0
26.698896411,1142.0
26.725156976,1120.0
26.751417541,1183.0
26.777678106,1113.0
26.803938671,1169.0
26.830199236,1143.0
26.856459801,1111.0
26.882720366,1088.0
26.908980931,1181.0
26.935241496,1123.0
26.961502061,1114.0
26.987762626,1184.0
27.014023191,1218.0
27.040283756,1143.0
27.066544321,1159.0
27.092804886,1163.0
27.119065451,1094.0
27.145326017,1174.0
27.171586582,1157.0
27.197847147,1145.0
27.224107712,1121.0
27.250368277,1111.0
27.276628842,1062.0
27.302889407,1106.0
27.329149972,1133.0
27.355410537,1130.0
27.381671102,1107.0
27.407931667,1094.0
27.434192232,1154.0
27.460452797,1080.0
27.486713362,1086.0
27.512973927,1145.0
27.539234492,1106.0
27.565495057,1190.0
27.591755622,1089.0
27.618016187,1092.0
27.644276752,1115.0
27.670537317,1096.0
27.696797882,1116.0
27.723058447,1155.0
27.749319012,1141.0
27.775579577,1050.0
27.801840142,1087.0
27.828100707,1064.0
27.854361272,1191.0
27.880621837,1103.0
27.906882402,1125.0
27.933142967,1114.0
27.959403532,1130.0
27.985664097,1110.0
28.011924662,1093.0
28.038185227,1094.0
28.064445792,1133.0
28.090706357,1079.0
28.116966922,1084.0
28.143227487,1158.0
28.169488052,1082.0
28.195748617,1108.0
28.222009182,1134.0
28.248269747,1060.0
28.274530312,1093.0
28.300790877,1150.0
28.327051442,1105.0
28.353312007,1140.0
28.379572572,1149.0
28.405833137,1077.0
28.432093702,1067.0
28.458354267,1086.0
28.484614832,1136.0
28.510875397,1085.0
28.537135962,1134.0
28.563396527,1144.0
28.589657092,1105.0
28.615917657,1053.0
28.642178222,1100.0
28.668438787,1119.0
28.694699352,1195.0
28.720959917,1144.0
28.747220482,1040.0
28.773481047,1126.0
28.799741612,1095.0
28.826002177,1070.0
28.852262742,1081.0
28.878523307,1081.0
28.904783872,1042.0
28.931044437,1087.0
28.957305002,1134.0
28.983565567,1062.0
29.009826132,1105.0
29.036086697,1130.0
29.062347262,1115.0
29.088607827,1074.0
29.114868392,1123.0
29.141128957,1064.0
29.167389522,1058.0
29.193650087,1098.0
29.219910652,1100.0
29.246171217,1083.0
29.272431782,1080.0
29.298692347,1052.0
29.324952912,1055.0
29.351213477,1089.0
29.377474042,1085.0
29.403734607,1117.0
29.429995172,1086.0
29.456255737,1135.0
29.482516302,1102.0
29.508776867,1101.0
29.535037432,1057.0
29.561297997,1072.0
29.587558562,1075.0
29.613819127,1100.0
29.640079692,1142.0
29.666340257,1047.0
29.692600822,1080.0
29.718861387,1115.0
29.745121952,1112.0
29.771382517,1044.0
29.797643082,1070.0
29.823903647,1062.0
29.850164212,1122.0
29.876424777,1124.0
29.902685342,1094.0
29.928945907,1079.0
29.955206472,1070.0
29.981467037,1093.0
30.007727602,1081.0
30.033988167,1050.0
30.060248732,1029.0
30.086509297,1087.0
30.112769862,1095.0
30.139030427,1077.0
30.165290992,1126.0
30.191551557,1056.0
30.217812122,1006.0
30.244072687,1075.0
30.270333252,999.0
30.296593817,1052.0
30.322854382,984.0
30.349114947,1097.0
30.375375512,1154.0
30.401636077,1054.0
30.427896642,1075.0
30.454157207,1066.0
30.480417772,995.0
30.506678337,1071.0
30.532938903,1036.0
30.559199468,1109.0
30.585460033,1104.0
30.611720598,1118.0
30.637981163,1043.0
30.664241728,1052.0
30.690502293,1077.0
30.716762858,1063.0
30.743023423,1056.0
30.769283988,1032.0
30.795544553,1071.0
30.821805118,1080.0
30.848065683,1014.0
30.874326248,1064.0
30.900586813,1057.0
30.926847378,1032.0
30.953107943,1082.0
30.979368508,1009.0
31.005629073,1057.0
31.031889638,1079.0
31.058150203,1107.0
31.084410768,1054.0
31.110671333,1055.0
31.136931898,971.0
31.163192463,1040.0
31.189453028,1052.0
31.215713593,1028.0
31.241974158,1023.0
31.268234723,1062.0
31.294495288,1065.0
31.320755853,1080.0
31.347016418,1034.0
31.373276983,1074.0
31.399537548,1022.0
31.425798113,1070.0
31.452058678,1034.0
31.478319243,1052.0
31.504579808,974.0
31.530840373,1066.0
31.557100938,1014.0
31.583361503,1026.0
31.609622068,1032.0
31.635882633,1058.0
31.662143198,1052.0
31.688403763,1063.0
31.714664328,1025.0
31.740924893,1012.0
31.767185458,1021.0
31.793446023,1090.0
31.819706588,974.0
31.845967153,1028.0
31.872227718,1047.0
31.898488283,979.0
31.924748848,1022.0
31.951009413,1081.0
31.977269978,1031.0
32.003530543,1010.0
32.029791108,1059.0
32.056051673,1019.0
32.082312238,966.0
32.108572803,985.0
32.134833368,1043.0
32.161093933,960.0
32.187354498,974.0
32.213615063,981.0
32.239875628,969.0
32.266136193,1011.0
32.292396758,990.0
32.318657323,968.0
32.344917888,1088.0
32.371178453,986.0
32.397439018,973.0
32.423699583,1029.0
32.449960148,967.0
32.476220713,1011.0
32.502481278,1005.0
32.528741843,970.0
32.555002408,956.0
32.581262973,1013.0
32.607523538,937.0
32.633784103,946.0
32.660044668,1023.0
32.686305233,1036.0
32.712565798,980.0
32.738826363,999.0
32.765086928,956.0
32.791347493,985.0
32.817608058,960.0
32.843868623,980.0
32.870129188,1012.0
32.896389753,1011.0
32.922650318,996.0
32.948910883,956.0
32.975171448,981.0
33.001432013,975.0
33.027692578,930.0
33.053953143,1044.0
33.080213708,1023.0
33.106474273,1022.0
33.132734838,959.0
33.158995403,937.0
33.185255968,974.0
33.211516533,998.0
33.237777098,957.0
33.264037663,951.0
33.290298228,933.0
33.316558793,959.0
33.342819358,999.0
33.369079923,959.0
33.395340488,952.0
33.421601053,989.0
33.447861618,964.0
33.474122183,999.0
33.500382748,947.0
33.526643313,972.0
33.552903878,957.0
33.579164443,987.0
33.605425008,899.0
33.631685573,927.0
33.657946138,988.0
33.684206703,937.0
33.710467268,903.0
33.736727833,919.0
33.762988398,951.0
33.789248963,960.0
33.815509528,916.0
33.841770093,938.0
33.868030658,998.0
33.894291223,932.0
33.920551789,963.0
33.946812354,960.0
33.973072919,907.0
33.999333484,979.0
34.025594049,924.0
34.051854614,879.0
34.078115179,888.0
34.104375744,955.0
34.130636309,967.0
34.156896874,947.0
34.183157439,891.0
34.209418004,916.0
34.235678569,942.0
34.261939134,937.0
34.288199699,961.0
34.314460264,887.0
34.340720829,899.0
34.366981394,884.0
34.393241959,892.0
34.419502524,854.0
34.445763089,999.0
34.472023654,957.0
34.498284219,971.0
34.524544784,919.0
34.550805349,931.0
34.577065914,924.0
34.603326479,880.0
34.629587044,922.0
34.655847609,965.0
34.682108174,906.0
34.708368739,897.0
34.734629304,938.0
34.760889869,907.0
34.787150434,931.0
34.813410999,892.0
34.839671564,904.0
34.865932129,873.0
34.892192694,916.0
34.918453259,919.0
34.944713824,872.0
34.970974389,871.0
34.997234954,947.0
35.023495519,821.0
35.049756084,894.0
35.076016649,909.0
35.102277214,870.0
35.128537779,917.0
35.154798344,928.0
35.181058909,894.0
35.207319474,937.0
35.233580039,848.0
35.259840604,892.0
35.286101169,859.0
35.312361734,888.0
35.338622299,935.0
35.364882864,957.0
35.391143429,803.0
35.417403994,864.0
35.443664559,866.0
35.469925124,823.0
35.496185689,844.0
35.522446254,907.0
35.548706819,868.0
35.574967384,837.0
35.601227949,846.0
35.627488514,804.0
35.653749079,822.0
35.680009644,897.0
35.706270209,844.0
35.732530774,821.0
35.758791339,910.0
35.785051904,832.0
35.811312469,817.0
35.837573034,858.0
35.863833599,838.0
35.890094164,824.0
35.916354729,920.0
35.942615294,843.0
35.968875859,877.0
35.995136424,901.0
36.021396989,884.0
36.047657554,869.0
36.073918119,835.0
36.100178684,855.0
36.126439249,864.0
36.152699814,857.0
36.178960379,861.0
36.205220944,861.0
36.231481509,835.0
36.257742074,857.0
36.284002639,840.0
36.310263204,772.0
36.336523769,831.0
36.362784334,903.0
36.389044899,881.0
36.415305464,858.0
36.441566029,850.0
36.467826594,808.0
36.494087159,858.0
36.520347724,912.0
36.546608289,835.0
36.572868854,825.0
36.599129419,844.0
36.625389984,811.0
36.651650549,815.0
36.677911114,850.0
36.704171679,827.0
36.730432244,816.0
36.756692809,827.0
36.782953374,825.0
36.809213939,842.0
36.835474504,783.0
36.861735069,827.0
36.887995634,828.0
36.914256199,813.0
36.940516764,832.0
36.966777329,796.0
36.993037894,875.0
37.019298459,826.0
37.045559024,847.0
37.071819589,859.0
37.098080154,835.0
37.124340719,801.0
37.150601284,757.0
37.176861849,866.0
37.203122414,781.0
37.229382979,807.0
37.255643544,817.0
37.281904109,774.0
37.308164674,846.0
37.334425240,803.0
37.360685805,791.0
37.386946370,785.0
37.413206935,773.0
37.439467500,771.0
37.465728065,785.0
37.491988630,788.0
37.518249195,774.0
37.544509760,788.0
37.570770325,799.0
37.597030890,775.0
37.623291455,799.0
37.649552020,854.0
37.675812585,791.0
37.702073150,784.0
37.728333715,791.0
37.754594280,757.0
37.780854845,759.0
37.807115410,800.0
37.833375975,766.0
37.859636540,788.0
37.885897105,830.0
37.912157670,805.0
37.938418235,772.0
37.964678800,789.0
37.990939365,804.0
38.017199930,813.0
38.043460495,802.0
38.069721060,821.0
38.095981625,771.0
38.122242190,795.0
38.148502755,809.0
38.174763320,755.0
38.201023885,746.0
38.227284450,741.0
38.253545015,768.0
38.279805580,808.0
38.306066145,808.0
38.332326710,799.0
38.358587275,790.0
38.384847840,734.0
38.411108405,741.0
38.437368970,808.0
38.463629535,763.0
38.489890100,783.0
38.516150665,761.0
38.542411230,843.0
38.568671795,721.0
38.594932360,764.0
38.621192925,808.0
38.647453490,716.0
38.673714055,747.0
38.699974620,772.0
38.726235185,801.0
38.752495750,750.0
38.778756315,712.0
38.805016880,793.0
38.831277445,757.0
38.857538010,786.0
38.883798575,776.0
38.910059140,785.0
38.936319705,763.0
38.962580270,790.0
38.988840835,822.0
39.015101400,772.0
39.041361965,717.0
39.067622530,794.0
39.093883095,714.0
39.120143660,769.0
39.146404225,771.0
39.172664790,800.0
39.198925355,742.0
39.225185920,870.0
39.251446485,788.0
39.277707050,788.0
39.303967615,795.0
39.330228180,770.0
39.356488745,689.0
39.382749310,777.0
39.409009875,793.0
39.435270440,776.0
39.461531005,763.0
39.487791570,801.0
39.514052135,745.0
39.540312700,783.0
39.566573265,698.0
39.592833830,756.0
39.619094395,781.0
39.645354960,775.0
39.671615525,806.0
39.697876090,758.0
39.724136655,804.0
39.750397220,813.0
39.776657785,729.0
39.802918350,812.0
39.829178915,740.0
39.855439480,811.0
39.881700045,853.0
39.907960610,787.0
39.934221175,830.0
39.960481740,887.0
39.986742305,785.0
40.013002870,754.0
40.039263435,847.0
40.065524000,834.0
40.091784565,845.0
40.118045130,775.0
40.144305695,855.0
40.170566260,828.0
40.196826825,833.0
40.223087390,842.0
40.249347955,876.0
40.275608520,827.0
40.301869085,872.0
40.328129650,863.0
40.354390215,806.0
40.380650780,855.0
40.406911345,899.0
40.433171910,817.0
40.459432475,874.0
40.485693040,825.0
40.511953605,885.0
40.538214170,848.0
40.564474735,840.0
40.590735300,860.0
40.616995865,865.0
40.643256430,864.0
40.669516995,860.0
40.695777560,875.0
40.722038126,860.0
40.748298691,811.0
40.774559256,827.0
40.800819821,865.0
40.827080386,860.0
40.853340951,902.0
40.879601516,869.0
40.905862081,800.0
40.932122646,895.0
40.958383211,905.0
40.984643776,825.0
41.010904341,885.0
41.037164906,812.0
41.063425471,892.0
41.089686036,822.0
41.115946601,873.0
41.142207166,862.0
41.168467731,813.0
41.194728296,865.0
41.220988861,902.0
41.247249426,915.0
41.273509991,860.0
41.299770556,894.0
41.326031121,832.0
41.352291686,890.0
41.378552251,931.0
41.404812816,847.0
41.431073381,982.0
41.457333946,880.0
41.483594511,812.0
41.509855076,879.0
41.536115641,851.0
41.562376206,917.0
41.588636771,896.0
41.614897336,817.0
41.641157901,867.0
41.667418466,845.0
41.693679031,791.0
41.719939596,812.0
41.746200161,843.0
41.772460726,829.0
41.798721291,919.0
41.824981856,876.0
41.851242421,861.0
41.877502986,842.0
41.903763551,834.0
41.930024116,869.0
41.956284681,895.0
41.982545246,865.0
42.008805811,847.0
42.035066376,859.0
42.061326941,840.0
42.087587506,818.0
42.113848071,873.0
42.140108636,826.0
42.166369201,889.0
42.192629766,855.0
42.218890331,888.0
42.245150896,901.0
42.271411461,861.0
42.297672026,852.0
42.323932591,792.0
42.350193156,842.0
42.376453721,859.0
42.402714286,864.0
42.428974851,859.0
42.455235416,837.0
42.481495981,874.0
42.507756546,814.0
42.534017111,873.0
42.560277676,860.0
42.586538241,878.0
42.612798806,863.0
42.639059371,786.0
42.665319936,840.0
42.691580501,835.0
42.717841066,826.0
42.744101631,849.0
42.770362196,797.0
42.796622761,767.0
42.822883326,838.0
42.849143891,826.0
42.875404456,808.0
42.901665021,743.0
42.927925586,807.0
42.954186151,765.0
42.980446716,796.0
43.006707281,798.0
43.032967846,751.0
43.059228411,822.0
43.085488976,703.0
43.111749541,797.0
43.138010106,829.0
43.164270671,779.0
43.190531236,769.0
43.216791801,744.0
43.243052366,732.0
43.269312931,717.0
43.295573496,796.0
43.321834061,760.0
43.348094626,786.0
43.374355191,755.0
43.400615756,743.0
43.426876321,709.0
43.453136886,778.0
43.479397451,690.0
43.505658016,747.0
43.531918581,719.0
43.558179146,677.0
43.584439711,733.0
43.610700276,727.0
43.636960841,710.0
43.663221406,770.0
43.689481971,694.0
43.715742536,739.0
43.742003101,759.0
43.768263666,726.0
43.794524231,687.0
43.820784796,660.0
43.847045361,705.0
43.873305926,730.0
43.899566491,716.0
43.925827056,654.0
43.952087621,699.0
43.978348186,734.0
44.004608751,717.0
44.030869316,707.0
44.057129881,667.0
44.083390446,640.0
44.109651011,667.0
44.135911577,678.0
44.162172142,690.0
44.188432707,683.0
44.214693272,650.0
44.240953837,668.0
44.267214402,749.0
44.293474967,644.0
44.319735532,628.0
44.345996097,680.0
44.372256662,729.0
44.398517227,667.0
44.424777792,645.0
44.451038357,624.0
44.477298922,670.0
44.503559487,653.0
44.529820052,627.0
44.556080617,644.0
44.582341182,645.0
44.608601747,646.0
44.634862312,646.0
44.661122877,619.0
44.687383442,642.0
44.713644007,618.0
44.739904572,631.0
44.766165137,623.0
44.792425702,651.0
44.818686267,622.0
44.844946832,632.0
44.871207397,625.0
44.897467962,598.0
44.923728527,631.0
44.949989092,607.0
44.976249657,641.0
45.002510222,618.0
45.028770787,656.0
45.055031352,624.0
45.081291917,647.0
45.107552482,640.0
45.133813047,685.0
45.160073612,544.0
45.186334177,647.0
45.212594742,612.0
45.238855307,559.0
45.265115872,570.0
45.291376437,621.0
45.317637002,606.0
45.343897567,587.0
45.370158132,561.0
45.396418697,575.0
45.422679262,585.0
45.448939827,562.0
45.475200392,588.0
45.501460957,620.0
45.527721522,597.0
45.553982087,628.0
45.580242652,625.0
45.606503217,600.0
45.632763782,550.0
45.659024347,573.0
45.685284912,591.0
45.711545477,536.0
45.737806042,619.0
45.764066607,629.0
45.790327172,574.0
45.816587737,561.0
45.842848302,558.0
45.869108867,571.0
45.895369432,590.0
45.921629997,598.0
45.947890562,615.0
45.974151127,591.0
46.000411692,537.0
46.026672257,599.0
46.052932822,572.0
46.079193387,570.0
46.105453952,606.0
46.131714517,529.0
46.157975082,590.0
46.184235647,585.0
46.210496212,591.0
46.236756777,588.0
46.263017342,592.0
46.289277907,570.0
46.315538472,577.0
46.341799037,554.0
46.368059602,580.0
46.394320167,542.0
46.420580732,569.0
46.446841297,571.0
46.473101862,549.0
46.499362427,561.0
46.525622992,579.0
46.551883557,565.0
46.578144122,546.0
46.604404687,553.0
46.630665252,513.0
46.656925817,502.0
46.683186382,518.0
46.709446947,514.0
46.735707512,564.0
46.761968077,506.0
46.788228642,528.0
46.814489207,528.0
46.840749772,520.0
46.867010337,513.0
46.893270902,563.0
46.919531467,555.0
46.945792032,566.0
46.972052597,524.0
46.998313162,542.0
47.024573727,495.0
47.050834292,522.0
47.077094857,519.0
47.103355422,553.0
47.129615987,512.0
47.155876552,510.0
47.182137117,494.0
47.208397682,540.0
47.234658247,442.0
47.260918812,518.0
47.287179377,505.0
47.313439942,521.0
47.339700507,515.0
47.365961072,504.0
47.392221637,527.0
47.418482202,488.0
47.444742767,518.0
47.471003332,544.0
47.497263897,542.0
47.523524463,489.0
47.549785028,530.0
47.576045593,477.0
47.602306158,516.0
47.628566723,474.0
47.654827288,478.0
47.681087853,523.0
47.707348418,521.0
47.733608983,480.0
47.759869548,488.0
47.786130113,509.0
47.812390678,512.0
47.838651243,514.0
47.864911808,493.0
47.891172373,493.0
47.917432938,485.0
47.943693503,486.0
47.969954068,524.0
47.996214633,507.0
48.022475198,485.0
48.048735763,548.0
48.074996328,522.0
48.101256893,551.0
48.127517458,477.0
48.153778023,484.0
48.180038588,479.0
48.206299153,459.0
48.232559718,428.0
48.258820283,466.0
48.285080848,494.0
48.311341413,472.0
48.337601978,500.0
48.363862543,497.0
48.390123108,500.0
48.416383673,471.0
48.442644238,431.0
48.468904803,436.0
48.495165368,474.0
48.521425933,498.0
48.547686498,489.0
48.573947063,477.0
48.600207628,469.0
48.626468193,518.0
48.652728758,497.0
48.678989323,483.0
48.705249888,471.0
48.731510453,474.0
48.757771018,503.0
48.784031583,486.0
48.810292148,489.0
48.836552713,462.0
48.862813278,481.0
48.889073843,506.0
48.915334408,467.0
48.941594973,474.0
48.967855538,460.0
48.994116103,457.0
49.020376668,475.0
49.046637233,515.0
49.072897798,462.0
49.099158363,450.0
49.125418928,442.0
49.151679493,500.0
49.177940058,493.0
49.204200623,467.0
49.230461188,466.0
49.256721753,460.0
49.282982318,447.0
49.309242883,479.0
49.335503448,441.0
49.361764013,448.0
49.388024578,456.0
49.414285143,509.0
49.440545708,420.0
49.466806273,461.0
49.493066838,470.0
49.519327403,453.0
49.545587968,453.0
49.571848533,448.0
49.598109098,466.0
49.624369663,466.0
49.650630228,441.0
49.676890793,413.0
49.703151358,435.0
49.729411923,467.0
49.755672488,444.0
49.781933053,447.0
49.808193618,454.0
49.834454183,482.0
49.860714748,459.0
49.886975313,447.0
49.913235878,456.0
49.939496443,438.0
49.965757008,489.0
49.992017573,419.0
50.018278138,432.0
50.044538703,413.0
50.070799268,449.0
50.097059833,488.0
50.123320398,442.0
50.149580963,444.0
50.175841528,436.0
50.202102093,425.0
50.228362658,458.0
50.254623223,475.0
50.280883788,490.0
50.307144353,462.0
50.333404918,446.0
50.359665483,424.0
50.385926048,436.0
50.412186613,425.0
50.438447178,450.0
50.464707743,481.0
50.490968308,442.0
50.517228873,456.0
50.543489438,470.0
50.569750003,429.0
50.596010568,419.0
50.622271133,432.0
50.648531698,464.0
50.674792263,420.0
50.701052828,434.0
50.727313393,431.0
50.753573958,404.0
50.779834523,435.0
50.806095088,412.0
50.832355653,437.0
50.858616218,414.0
50.884876783,434.0
50.911137349,417.0
50.937397914,462.0
50.963658479,408.0
50.989919044,434.0
51.016179609,416.0
51.042440174,439.0
51.068700739,433.0
51.094961304,437.0
51.121221869,391.0
51.147482434,399.0
51.173742999,438.0
51.200003564,388.0
51.226264129,428.0
51.252524694,413.0
51.278785259,429.0
51.305045824,382.0
51.331306389,429.0
51.357566954,422.0
51.383827519,434.0
51.410088084,403.0
51.436348649,421.0
51.462609214,420.0
51.488869779,391.0
51.515130344,411.0
51.541390909,411.0
51.567651474,403.0
51.593912039,459.0
51.620172604,417.0
51.646433169,424.0
51.672693734,406.0
51.698954299,429.0
51.725214864,409.0
51.751475429,427.0
51.777735994,417.0
51.803996559,445.0
51.830257124,440.0
51.856517689,435.0
51.882778254,430.0
51.909038819,433.0
51.935299384,427.0
51.961559949,423.0
51.987820514,446.0
52.014081079,398.0
52.040341644,398.0
52.066602209,414.0
52.092862774,415.0
52.119123339,424.0
52.145383904,416.0
52.171644469,418.0
52.197905034,436.0
52.224165599,406.0
52.250426164,383.0
52.276686729,419.0
52.302947294,400.0
52.329207859,434.0
52.355468424,371.0
52.381728989,454.0
52.407989554,403.0
52.434250119,433.0
52.460510684,411.0
52.486771249,407.0
52.513031814,395.0
52.539292379,393.0
52.565552944,390.0
52.591813509,399.0
52.618074074,410.0
52.644334639,409.0
52.670595204,411.0
52.696855769,401.0
52.723116334,434.0
52.749376899,422.0
52.775637464,439.0
52.801898029,431.0
52.828158594,356.0
52.854419159,397.0
52.880679724,421.0
52.906940289,442.0
52.933200854,432.0
52.959461419,404.0
52.985721984,396.0
53.011982549,405.0
53.038243114,419.0
53.064503679,418.0
53.090764244,391.0
53.117024809,401.0
53.143285374,388.0
53.169545939,435.0
53.195806504,412.0
53.222067069,437.0
53.248327634,338.0
53.274588199,388.0
53.300848764,405.0
53.327109329,390.0
53.353369894,386.0
53.379630459,423.0
53.405891024,380.0
53.432151589,386.0
53.458412154,377.0
53.484672719,372.0
53.510933284,399.0
53.537193849,411.0
53.563454414,391.0
53.589714979,424.0
53.615975544,398.0
53.642236109,390.0
53.668496674,383.0
53.694757239,381.0
53.721017804,387.0
53.747278369,394.0
53.773538934,420.0
53.799799499,396.0
53.826060064,412.0
53.852320629,414.0
53.878581194,411.0
53.904841759,386.0
53.931102324,393.0
53.957362889,414.0
53.983623454,413.0
54.009884019,369.0
54.036144584,372.0
54.062405149,383.0
54.088665714,369.0
54.114926279,378.0
54.141186844,352.0
54.167447409,371.0
54.193707974,411.0
54.219968539,390.0
54.246229104,383.0
54.272489669,350.0
54.298750234,335.0
54.325010800,404.0
54.351271365,349.0
54.377531930,308.0
54.403792495,357.0
54.430053060,398.0
54.456313625,427.0
54.482574190,348.0
54.508834755,382.0
54.535095320,414.0
54.561355885,375.0
54.587616450,363.0
54.613877015,408.0
54.640137580,401.0
54.666398145,411.0
54.692658710,394.0
54.718919275,367.0
54.745179840,408.0
54.771440405,388.0
54.797700970,372.0
54.823961535,412.0
54.850222100,415.0
54.876482665,406.0
54.902743230,350.0
54.929003795,400.0
54.955264360,434.0
54.981524925,363.0
55.007785490,404.0
55.034046055,383.0
55.060306620,401.0
55.086567185,373.0
55.112827750,373.0
55.139088315,409.0
55.165348880,371.0
55.191609445,358.0
55.217870010,367.0
55.244130575,403.0
55.270391140,409.0
55.296651705,390.0
55.322912270,401.0
55.349172835,386.0
55.375433400,384.0
55.401693965,380.0
55.427954530,394.0
55.454215095,387.0
55.480475660,379.0
55.506736225,414.0
55.532996790,371.0
55.559257355,393.0
55.585517920,356.0
55.611778485,351.0
55.638039050,409.0
55.664299615,384.0
55.690560180,382.0
55.716820745,380.0
55.743081310,373.0
55.769341875,386.0
55.795602440,410.0
55.821863005,380.0
55.848123570,361.0
55.874384135,392.0
55.900644700,371.0
55.926905265,388.0
55.953165830,375.0
55.979426395,390.0
56.005686960,371.0
56.031947525,399.0
56.058208090,399.0
56.084468655,395.0
56.110729220,356.0
56.136989785,337.0
56.163250350,389.0
56.189510915,377.0
56.215771480,361.0
56.242032045,326.0
56.268292610,360.0
56.294553175,404.0
56.320813740,330.0
56.347074305,359.0
56.373334870,381.0
56.399595435,402.0
56.425856000,373.0
56.452116565,366.0
56.478377130,367.0
56.504637695,375.0
56.530898260,393.0
56.557158825,342.0
56.583419390,376.0
56.609679955,380.0
56.635940520,366.0
56.662201085,379.0
56.688461650,364.0
56.714722215,399.0
56.740982780,385.0
56.767243345,358.0
56.793503910,368.0
56.819764475,370.0
56.846025040,348.0
56.872285605,388.0
56.898546170,382.0
56.924806735,390.0
56.951067300,346.0
56.977327865,348.0
57.003588430,351.0
57.029848995,382.0
57.056109560,374.0
57.082370125,383.0
57.108630690,366.0
57.134891255,350.0
57.161151820,336.0
57.187412385,358.0
57.213672950,374.0
57.239933515,347.0
57.266194080,339.0
57.292454645,354.0
57.318715210,349.0
57.344975775,380.0
57.371236340,334.0
57.397496905,362.0
57.423757470,359.0
57.450018035,369.0
57.476278600,355.0
57.502539165,342.0
57.528799730,352.0
57.555060295,360.0
57.581320860,406.0
57.607581425,319.0
57.633841990,362.0
57.660102555,354.0
57.686363120,347.0
57.712623686,348.0
57.738884251,332.0
57.765144816,361.0
57.791405381,376.0
57.817665946,340.0
57.843926511,342.0
57.870187076,355.0
57.896447641,355.0
57.922708206,365.0
57.948968771,371.0
57.975229336,355.0
58.001489901,391.0
58.027750466,390.0
58.054011031,394.0
58.080271596,368.0
58.106532161,338.0
58.132792726,311.0
58.159053291,349.0
58.185313856,338.0
58.211574421,359.0
58.237834986,343.0
58.264095551,322.0
58.290356116,357.0
58.316616681,357.0
58.342877246,348.0
58.369137811,378.0
58.395398376,348.0
58.421658941,332.0
58.447919506,359.0
58.474180071,373.0
58.500440636,360.0
58.526701201,379.0
58.552961766,364.0
58.579222331,368.0
58.605482896,386.0
58.631743461,333.0
58.658004026,354.0
58.684264591,334.0
58.710525156,371.0
58.736785721,314.0
58.763046286,332.0
58.789306851,385.0
58.815567416,347.0
58.841827981,346.0
58.868088546,332.0
58.894349111,366.0
58.920609676,382.0
58.946870241,341.0
58.973130806,294.0
58.999391371,362.0
59.025651936,348.0
59.051912501,372.0
59.078173066,356.0
59.104433631,328.0
59.130694196,330.0
59.156954761,353.0
59.183215326,345.0
59.209475891,379.0
59.235736456,354.0
59.261997021,368.0
59.288257586,369.0
59.314518151,348.0
59.340778716,367.0
59.367039281,316.0
59.393299846,366.0
59.419560411,356.0
59.445820976,365.0
59.472081541,352.0
59.498342106,313.0
59.524602671,342.0
59.550863236,369.0
59.577123801,341.0
59.603384366,333.0
59.629644931,367.0
59.655905496,328.0
59.682166061,376.0
59.708426626,366.0
59.734687191,331.0
59.760947756,307.0
59.787208321,337.0
59.813468886,321.0
59.839729451,379.0
59.865990016,346.0
59.892250581,365.0
59.918511146,364.0
59.944771711,354.0
59.971032276,340.0
59.997292841,354.0
60.023553406,373.0
60.049813971,346.0
60.076074536,357.0
60.102335101,355.0
60.128595666,346.0
60.154856231,322.0
60.181116796,333.0
60.207377361,356.0
60.233637926,351.0
60.259898491,360.0
60.286159056,316.0
60.312419621,387.0
60.338680186,357.0
60.364940751,309.0
60.391201316,322.0
60.417461881,335.0
60.443722446,373.0
60.469983011,352.0
60.496243576,309.0
60.522504141,337.0
60.548764706,364.0
60.575025271,358.0
60.601285836,325.0
60.627546401,318.0
60.653806966,352.0
60.680067531,340.0
60.706328096,356.0
60.732588661,345.0
60.758849226,347.0
60.785109791,353.0
60.811370356,358.0
60.837630921,315.0
60.863891486,364.0
60.890152051,335.0
60.916412616,326.0
60.942673181,347.0
60.968933746,350.0
60.995194311,337.0
61.021454876,324.0
61.047715441,352.0
61.073976006,315.0
61.100236571,322.0
61.126497137,363.0
61.152757702,361.0
61.179018267,326.0
61.205278832,342.0
61.231539397,355.0
61.257799962,354.0
61.284060527,328.0
61.310321092,369.0
61.336581657,336.0
61.362842222,367.0
61.389102787,304.0
61.415363352,319.0
61.441623917,318.0
61.467884482,331.0
61.494145047,331.0
61.520405612,344.0
61.546666177,344.0
61.572926742,358.0
61.599187307,336.0
61.625447872,324.0
61.651708437,331.0
61.677969002,321.0
61.704229567,325.0
61.730490132,384.0
61.756750697,292.0
61.783011262,341.0
61.809271827,344.0
61.835532392,335.0
61.861792957,334.0
61.888053522,318.0
61.914314087,340.0
61.940574652,332.0
61.966835217,309.0
61.993095782,316.0
62.019356347,323.0
62.045616912,324.0
62.071877477,347.0
62.098138042,324.0
62.124398607,349.0
62.150659172,365.0
62.176919737,338.0
62.203180302,294.0
62.229440867,333.0
62.255701432,357.0
62.281961997,360.0
62.308222562,338.0
62.334483127,294.0
62.360743692,342.0
62.387004257,326.0
62.413264822,328.0
62.439525387,348.0
62.465785952,320.0
62.492046517,309.0
62.518307082,299.0
62.544567647,343.0
62.570828212,362.0
62.597088777,303.0
62.623349342,335.0
62.649609907,339.0
62.675870472,340.0
62.702131037,319.0
62.728391602,291.0
62.754652167,354.0
62.780912732,343.0
62.807173297,315.0
62.833433862,341.0
62.859694427,343.0
62.885954992,374.0
62.912215557,315.0
62.938476122,324.0
62.964736687,328.0
62.990997252,347.0
63.017257817,311.0
63.043518382,347.0
63.069778947,331.0
63.096039512,333.0
63.122300077,311.0
63.148560642,320.0
63.174821207,345.0
63.201081772,293.0
63.227342337,322.0
63.253602902,379.0
63.279863467,349.0
63.306124032,330.0
63.332384597,299.0
63.358645162,340.0
63.384905727,317.0
63.411166292,370.0
63.437426857,330.0
63.463687422,364.0
63.489947987,345.0
63.516208552,304.0
63.542469117,314.0
63.568729682,300.0
63.594990247,349.0
63.621250812,315.0
63.647511377,328.0
63.673771942,338.0
63.700032507,340.0
63.726293072,332.0
63.752553637,312.0
63.778814202,341.0
63.805074767,323.0
63.831335332,347.0
63.857595897,334.0
63.883856462,353.0
63.910117027,315.0
63.936377592,313.0
63.962638157,340.0
63.988898722,307.0
64.015159287,354.0
64.041419852,360.0
64.067680417,335.0
64.093940982,332.0
64.120201547,379.0
64.146462112,331.0
64.172722677,350.0
64.198983242,334.0
64.225243807,353.0
64.251504372,355.0
64.277764937,342.0
64.304025502,315.0
64.330286067,316.0
64.356546632,311.0
64.382807197,324.0
64.409067762,316.0
64.435328327,325.0
64.461588892,334.0
64.487849457,363.0
64.514110023,329.0
64.540370588,321.0
64.566631153,320.0
64.592891718,312.0
64.619152283,318.0
64.645412848,294.0
64.671673413,288.0
64.697933978,314.0
64.724194543,304.0
64.750455108,331.0
64.776715673,349.0
64.802976238,350.0
64.829236803,337.0
64.855497368,302.0
64.881757933,285.0
64.908018498,286.0
64.934279063,344.0
64.960539628,348.0
64.986800193,312.0
65.013060758,301.0
65.039321323,336.0
65.065581888,315.0
65.091842453,308.0
65.118103018,321.0
65.144363583,315.0
65.170624148,324.0
65.196884713,333.0
65.223145278,291.0
65.249405843,321.0
65.275666408,323.0
65.301926973,309.0
65.328187538,294.0
65.354448103,292.0
65.380708668,311.0
65.406969233,292.0
65.433229798,288.0
65.459490363,317.0
65.485750928,367.0
65.512011493,336.0
65.538272058,334.0
65.564532623,357.0
65.590793188,286.0
65.617053753,303.0
65.643314318,304.0
65.669574883,290.0
65.695835448,294.0
65.722096013,288.0
65.748356578,290.0
65.774617143,317.0
65.800877708,262.0
65.827138273,327.0
65.853398838,319.0
65.879659403,342.0
65.905919968,288.0
65.932180533,296.0
65.958441098,310.0
65.984701663,313.0
66.010962228,304.0
66.037222793,306.0
66.063483358,341.0
66.089743923,316.0
66.116004488,283.0
66.142265053,304.0
66.168525618,309.0
66.194786183,311.0
66.221046748,327.0
66.247307313,304.0
66.273567878,298.0
66.299828443,298.0
66.326089008,310.0
66.352349573,307.0
66.378610138,280.0
66.404870703,314.0
66.431131268,284.0
66.457391833,294.0
66.483652398,306.0
66.509912963,335.0
66.536173528,323.0
66.562434093,294.0
66.588694658,317.0
66.614955223,329.0
66.641215788,338.0
66.667476353,320.0
66.693736918,308.0
66.719997483,325.0
66.746258048,279.0
66.772518613,286.0
66.798779178,297.0
66.825039743,295.0
66.851300308,279.0
66.877560873,317.0
66.903821438,279.0
66.930082003,349.0
66.956342568,310.0
66.982603133,287.0
67.008863698,309.0
67.035124263,311.0
67.061384828,333.0
67.087645393,312.0
67.113905958,304.0
67.140166523,316.0
67.166427088,278.0
67.192687653,280.0
67.218948218,261.0
67.245208783,321.0
67.271469348,325.0
67.297729913,324.0
67.323990478,290.0
67.350251043,296.0
67.376511608,294.0
67.402772173,338.0
67.429032738,288.0
67.455293303,313.0
67.481553868,342.0
67.507814433,292.0
67.534074998,307.0
67.560335563,295.0
67.586596128,317.0
67.612856693,314.0
67.639117258,318.0
67.665377823,300.0
67.691638388,316.0
67.717898953,307.0
67.744159518,295.0
67.770420083,240.0
67.796680648,310.0
67.822941213,332.0
67.849201778,331.0
67.875462343,266.0
67.901722909,320.0
67.927983474,270.0
67.954244039,301.0
67.980504604,292.0
68.006765169,275.0
68.033025734,284.0
68.059286299,290.0
68.085546864,286.0
68.111807429,309.0
68.138067994,298.0
68.164328559,295.0
68.190589124,324.0
68.216849689,309.0
68.243110254,313.0
68.269370819,332.0
68.295631384,310.0
68.321891949,301.0
68.348152514,257.0
68.374413079,299.0
68.400673644,337.0
68.426934209,342.0
68.453194774,299.0
68.479455339,269.0
68.505715904,272.0
68.531976469,265.0
68.558237034,280.0
68.584497599,270.0
68.610758164,287.0
68.637018729,283.0
68.663279294,289.0
68.689539859,314.0
68.715800424,262.0
68.742060989,317.0
68.768321554,276.0
68.794582119,308.0
68.820842684,305.0
68.847103249,304.0
68.873363814,278.0
68.899624379,253.0
68.925884944,297.0
68.952145509,307.0
68.978406074,267.0
69.004666639,285.0
69.030927204,273.0
69.057187769,280.0
69.083448334,318.0
69.109708899,289.0
69.135969464,317.0
69.162230029,291.0
69.188490594,277.0
69.214751159,307.0
69.241011724,286.0
69.267272289,314.0
69.293532854,278.0
69.319793419,317.0
69.346053984,298.0
69.372314549,263.0
69.398575114,292.0
69.424835679,277.0
69.451096244,290.0
69.477356809,272.0
69.503617374,289.0
69.529877939,315.0
69.556138504,330.0
69.582399069,286.0
69.608659634,307.0
69.634920199,274.0
69.661180764,321.0
69.687441329,293.0
69.713701894,279.0
69.739962459,278.0
69.766223024,310.0
69.792483589,293.0
69.818744154,283.0
69.845004719,282.0
69.871265284,302.0
69.897525849,278.0
69.923786414,283.0
69.950046979,310.0
69.976307544,280.0
70.002568109,283.0
70.028828674,255.0
70.055089239,322.0
70.081349804,284.0
70.107610369,312.0
70.133870934,303.0
70.160131499,297.0
70.186392064,289.0
70.212652629,304.0
70.238913194,276.0
70.265173759,274.0
70.291434324,267.0
70.317694889,273.0
70.343955454,264.0
70.370216019,255.0
70.396476584,285.0
70.422737149,274.0
70.448997714,276.0
70.475258279,313.0
70.501518844,312.0
70.527779409,283.0
70.554039974,258.0
70.580300539,282.0
70.606561104,286.0
70.632821669,301.0
70.659082234,268.0
70.685342799,278.0
70.711603364,297.0
70.737863929,288.0
70.764124494,264.0
70.790385059,277.0
70.816645624,285.0
70.842906189,248.0
70.869166754,300.0
70.895427319,303.0
70.921687884,268.0
70.947948449,271.0
70.974209014,266.0
71.000469579,274.0
71.026730144,293.0
71.052990709,284.0
71.079251274,259.0
71.105511839,264.0
71.131772404,279.0
71.158032969,249.0
71.184293534,280.0
71.210554099,292.0
71.236814664,279.0
71.263075229,250.0
71.289335794,280.0
71.315596360,258.0
71.341856925,276.0
71.368117490,303.0
71.394378055,262.0
71.420638620,277.0
71.446899185,265.0
71.473159750,304.0
71.499420315,298.0
71.525680880,236.0
71.551941445,279.0
71.578202010,291.0
71.604462575,288.0
71.630723140,306.0
71.656983705,278.0
71.683244270,299.0
71.709504835,286.0
71.735765400,309.0
71.762025965,309.0
71.788286530,279.0
71.814547095,291.0
71.840807660,305.0
71.867068225,293.0
71.893328790,291.0
71.919589355,271.0
71.945849920,283.0
71.972110485,281.0
71.998371050,246.0
72.024631615,245.0
72.050892180,301.0
72.077152745,273.0
72.103413310,312.0
72.129673875,289.0
72.155934440,265.0
72.182195005,300.0
72.208455570,308.0
72.234716135,243.0
72.260976700,304.0
72.287237265,274.0
72.313497830,313.0
72.339758395,276.0
72.366018960,284.0
72.392279525,291.0
72.418540090,303.0
72.444800655,259.0
72.471061220,282.0
72.497321785,265.0
72.523582350,281.0
72.549842915,255.0
72.576103480,257.0
72.602364045,282.0
72.628624610,269.0
72.654885175,309.0
72.681145740,317.0
72.707406305,304.0
72.733666870,259.0
72.759927435,290.0
72.786188000,330.0
72.812448565,282.0
72.838709130,257.0
72.864969695,279.0
72.891230260,280.0
72.917490825,301.0
72.943751390,266.0
72.970011955,309.0
72.996272520,266.0
73.022533085,282.0
73.048793650,275.0
73.075054215,274.0
73.101314780,269.0
73.127575345,287.0
73.153835910,298.0
73.180096475,261.0
73.206357040,309.0
73.232617605,283.0
73.258878170,316.0
73.285138735,284.0
73.311399300,311.0
73.337659865,314.0
73.363920430,308.0
73.390180995,286.0
73.416441560,305.0
73.442702125,296.0
73.468962690,291.0
73.495223255,272.0
73.521483820,314.0
73.547744385,304.0
73.574004950,288.0
73.600265515,274.0
73.626526080,277.0
73.652786645,266.0
73.679047210,259.0
73.705307775,298.0
73.731568340,250.0
73.757828905,288.0
73.784089470,281.0
73.810350035,267.0
73.836610600,274.0
73.862871165,272.0
73.889131730,276.0
73.915392295,268.0
73.941652860,295.0
73.967913425,294.0
73.994173990,265.0
74.020434555,290.0
74.046695120,299.0
74.072955685,280.0
74.099216250,269.0
74.125476815,259.0
74.151737380,249.0
74.177997945,283.0
74.204258510,266.0
74.230519075,285.0
74.256779640,267.0
74.283040205,272.0
74.309300770,240.0
74.335561335,278.0
74.361821900,264.0
74.388082465,292.0
74.414343030,286.0
74.440603595,304.0
74.466864160,282.0
74.493124725,273.0
74.519385290,260.0
74.545645855,292.0
74.571906420,268.0
74.598166985,266.0
74.624427550,292.0
74.650688115,274.0
74.676948680,236.0
74.703209246,259.0
74.729469811,278.0
74.755730376,286.0
74.781990941,281.0
74.808251506,269.0
74.834512071,277.0
74.860772636,243.0
74.887033201,253.0
74.913293766,279.0
74.939554331,253.0
74.965814896,286.0
74.992075461,264.0
75.018336026,265.0
75.044596591,261.0
75.070857156,288.0
75.097117721,298.0
75.123378286,287.0
75.149638851,236.0
75.175899416,275.0
75.202159981,280.0
75.228420546,272.0
75.254681111,282.0
75.280941676,309.0
75.307202241,272.0
75.333462806,271.0
75.359723371,263.0
75.385983936,244.0
75.412244501,233.0
75.438505066,283.0
75.464765631,266.0
75.491026196,241.0
75.517286761,277.0
75.543547326,275.0
75.569807891,283.0
75.596068456,311.0
75.622329021,280.0
75.648589586,280.0
75.674850151,283.0
75.701110716,258.0
75.727371281,284.0
75.753631846,281.0
75.779892411,272.0
75.806152976,286.0
75.832413541,296.0
75.858674106,288.0
75.884934671,250.0
75.911195236,294.0
75.937455801,244.0
75.963716366,279.0
75.989976931,272.0
76.016237496,274.0
76.042498061,256.0
76.068758626,288.0
76.095019191,291.0
76.121279756,282.0
76.147540321,265.0
76.173800886,266.0
76.200061451,277.0
76.226322016,262.0
76.252582581,306.0
76.278843146,285.0
76.305103711,261.0
76.331364276,252.0
76.357624841,249.0
76.383885406,255.0
76.410145971,249.0
76.436406536,269.0
76.462667101,265.0
76.488927666,246.0
76.515188231,245.0
76.541448796,258.0
76.567709361,276.0
76.593969926,261.0
76.620230491,286.0
76.646491056,271.0
76.672751621,267.0
76.699012186,251.0
76.725272751,235.0
76.751533316,247.0
76.777793881,276.0
76.804054446,245.0
76.830315011,248.0
76.856575576,271.0
76.882836141,258.0
76.909096706,261.0
76.935357271,276.0
76.961617836,269.0
76.987878401,242.0
77.014138966,263.0
77.040399531,263.0
77.066660096,262.0
77.092920661,247.0
77.119181226,258.0
77.145441791,256.0
77.171702356,294.0
77.197962921,270.0
77.224223486,262.0
77.250484051,257.0
77.276744616,278.0
77.303005181,273.0
77.329265746,270.0
77.355526311,231.0
77.381786876,263.0
77.408047441,271.0
77.434308006,258.0
77.460568571,288.0
77.486829136,278.0
77.513089701,237.0
77.539350266,259.0
77.565610831,216.0
77.591871396,248.0
77.618131961,236.0
77.644392526,254.0
77.670653091,281.0
77.696913656,288.0
77.723174221,271.0
77.749434786,248.0
77.775695351,260.0
77.801955916,256.0
77.828216481,262.0
77.854477046,285.0
77.880737611,296.0
77.906998176,243.0
77.933258741,275.0
77.959519306,283.0
77.985779871,224.0
78.012040436,262.0
78.038301001,265.0
78.064561566,236.0
78.090822131,256.0
78.117082697,274.0
78.143343262,262.0
78.169603827,273.0
78.195864392,271.0
78.222124957,245.0
78.248385522,248.0
78.274646087,244.0
78.300906652,281.0
78.327167217,266.0
78.353427782,269.0
78.379688347,249.0
78.405948912,274.0
78.432209477,263.0
78.458470042,306.0
78.484730607,262.0
78.510991172,259.0
78.537251737,250.0
78.563512302,271.0
78.589772867,280.0
78.616033432,245.0
78.642293997,239.0
78.668554562,267.0
78.694815127,277.0
78.721075692,262.0
78.747336257,240.0
78.773596822,254.0
78.799857387,269.0
78.826117952,229.0
78.852378517,239.0
78.878639082,253.0
78.904899647,271.0
78.931160212,222.0
78.957420777,281.0
78.983681342,260.0
79.009941907,275.0
79.036202472,251.0
79.062463037,263.0
79.088723602,250.0
79.114984167,258.0
79.141244732,219.0
79.167505297,246.0
79.193765862,252.0
79.220026427,269.0
79.246286992,233.0
79.272547557,213.0
79.298808122,264.0
79.325068687,267.0
79.351329252,250.0
79.377589817,285.0
79.403850382,273.0
79.430110947,244.0
79.456371512,249.0
79.482632077,267.0
79.508892642,283.0
79.535153207,277.0
79.561413772,266.0
79.587674337,246.0
79.613934902,237.0
79.640195467,264.0
79.666456032,244.0
79.692716597,247.0
79.718977162,225.0
79.745237727,263.0
79.771498292,244.0
79.797758857,245.0
79.824019422,264.0
79.850279987,265.0
79.876540552,253.0
79.902801117,267.0
79.929061682,273.0
79.955322247,249.0
79.981582812,212.0
80.007843377,259.0
80.034103942,258.0
80.060364507,284.0
80.086625072,247.0
80.112885637,255.0
80.139146202,225.0
80.165406767,265.0
80.191667332,264.0
80.217927897,270.0
80.244188462,279.0
80.270449027,219.0
80.296709592,236.0
80.322970157,245.0
80.349230722,243.0
80.375491287,258.0
80.401751852,218.0
80.428012417,233.0
80.454272982,255.0
80.480533547,246.0
80.506794112,223.0
80.533054677,201.0
80.559315242,260.0
80.585575807,255.0
80.611836372,269.0
80.638096937,236.0
80.664357502,271.0
80.690618067,256.0
80.716878632,261.0
80.743139197,259.0
80.769399762,267.0
80.795660327,227.0
80.821920892,251.0
80.848181457,265.0
80.874442022,282.0
80.900702587,220.0
80.926963152,236.0
80.953223717,239.0
80.979484282,241.0
81.005744847,247.0
81.032005412,265.0
81.058265977,223.0
81.084526542,240.0
81.110787107,252.0
81.137047672,253.0
81.163308237,249.0
81.189568802,242.0
81.215829367,230.0
81.242089932,233.0
81.268350497,234.0
81.294611062,228.0
81.320871627,249.0
81.347132192,233.0
81.373392757,262.0
81.399653322,237.0
81.425913887,267.0
81.452174452,243.0
81.478435017,233.0
81.504695583,260.0
81.530956148,244.0
81.557216713,236.0
81.583477278,241.0
81.609737843,243.0
81.635998408,237.0
81.662258973,245.0
81.688519538,253.0
81.714780103,260.0
81.741040668,259.0
81.767301233,248.0
81.793561798,216.0
81.819822363,245.0
81.846082928,224.0
81.872343493,243.0
81.898604058,229.0
81.924864623,210.0
81.951125188,239.0
81.977385753,226.0
82.003646318,209.0
82.029906883,252.0
82.056167448,240.0
82.082428013,262.0
82.108688578,239.0
82.134949143,239.0
82.161209708,221.0
82.187470273,236.0
82.213730838,218.0
82.239991403,227.0
82.266251968,243.0
82.292512533,190.0
82.318773098,233.0
82.345033663,220.0
82.371294228,226.0
82.397554793,222.0
82.423815358,239.0
82.450075923,247.0
82.476336488,226.0
82.502597053,224.0
82.528857618,228.0
82.555118183,239.0
82.581378748,210.0
82.607639313,261.0
82.633899878,237.0
82.660160443,264.0
82.686421008,234.0
82.712681573,231.0
82.738942138,272.0
82.765202703,226.0
82.791463268,257.0
82.817723833,214.0
82.843984398,258.0
82.870244963,231.0
82.896505528,267.0
82.922766093,253.0
82.949026658,212.0
82.975287223,221.0
83.001547788,222.0
83.027808353,253.0
83.054068918,247.0
83.080329483,254.0
83.106590048,234.0
83.132850613,225.0
83.159111178,223.0
83.185371743,230.0
83.211632308,241.0
83.237892873,239.0
83.264153438,235.0
83.290414003,250.0
83.316674568,242.0
83.342935133,252.0
83.369195698,221.0
83.395456263,256.0
83.421716828,214.0
83.447977393,241.0
83.474237958,212.0
83.500498523,238.0
83.526759088,231.0
83.553019653,230.0
83.579280218,236.0
83.605540783,254.0
83.631801348,241.0
83.658061913,223.0
83.684322478,237.0
83.710583043,231.0
83.736843608,214.0
83.763104173,224.0
83.789364738,244.0
83.815625303,209.0
83.841885868,205.0
83.868146433,250.0
83.894406998,220.0
83.920667563,254.0
83.946928128,221.0
83.973188693,234.0
83.999449258,226.0
84.025709823,221.0
84.051970388,220.0
84.078230953,268.0
84.104491518,224.0
84.130752083,235.0
84.157012648,232.0
84.183273213,240.0
84.209533778,249.0
84.235794343,226.0
84.262054908,238.0
84.288315473,227.0
84.314576038,237.0
84.340836603,229.0
84.367097168,227.0
84.393357733,207.0
84.419618298,220.0
84.445878863,221.0
84.472139428,239.0
84.498399993,255.0
84.524660558,214.0
84.550921123,241.0
84.577181688,220.0
84.603442253,237.0
84.629702818,245.0
84.655963383,231.0
84.682223948,241.0
84.708484513,218.0
84.734745078,238.0
84.761005643,241.0
84.787266208,209.0
84.813526773,188.0
84.839787338,213.0
84.866047903,225.0
84.892308469,215.0
84.918569034,226.0
84.944829599,214.0
84.971090164,208.0
84.997350729,193.0
85.023611294,210.0
85.049871859,221.0
85.076132424,225.0
85.102392989,209.0
85.128653554,239.0
85.154914119,227.0
85.181174684,216.0
85.207435249,224.0
85.233695814,215.0
85.259956379,194.0
85.286216944,216.0
85.312477509,205.0
85.338738074,212.0
85.364998639,221.0
85.391259204,207.0
85.417519769,250.0
85.443780334,220.0
85.470040899,212.0
85.496301464,249.0
85.522562029,221.0
85.548822594,228.0
85.575083159,221.0
85.601343724,237.0
85.627604289,210.0
85.653864854,233.0
85.680125419,196.0
85.706385984,205.0
85.732646549,231.0
85.758907114,219.0
85.785167679,192.0
85.811428244,230.0
85.837688809,211.0
85.863949374,229.0
85.890209939,224.0
85.916470504,197.0
85.942731069,202.0
85.968991634,217.0
85.995252199,215.0
86.021512764,229.0
86.047773329,215.0
86.074033894,236.0
86.100294459,213.0
86.126555024,209.0
86.152815589,209.0
86.179076154,219.0
86.205336719,229.0
86.231597284,219.0
86.257857849,224.0
86.284118414,226.0
86.310378979,221.0
86.336639544,212.0
86.362900109,214.0
86.389160674,216.0
86.415421239,216.0
86.441681804,234.0
86.467942369,245.0
86.494202934,218.0
86.520463499,218.0
86.546724064,218.0
86.572984629,224.0
86.599245194,213.0
86.625505759,202.0
86.651766324,209.0
86.678026889,212.0
86.704287454,212.0
86.730548019,213.0
86.756808584,224.0
86.783069149,232.0
86.809329714,228.0
86.835590279,195.0
86.861850844,215.0
86.888111409,215.0
86.914371974,246.0
86.940632539,188.0
86.966893104,230.0
86.993153669,200.0
87.019414234,213.0
87.045674799,219.0
87.071935364,192.0
87.098195929,217.0
87.124456494,230.0
87.150717059,254.0
87.176977624,211.0
87.203238189,224.0
87.229498754,219.0
87.255759319,234.0
87.282019884,208.0
87.308280449,219.0
87.334541014,227.0
87.360801579,254.0
87.387062144,212.0
87.413322709,229.0
87.439583274,238.0
87.465843839,205.0
87.492104404,250.0
87.518364969,214.0
87.544625534,228.0
87.570886099,220.0
87.597146664,214.0
87.623407229,223.0
87.649667794,216.0
87.675928359,204.0
87.702188924,210.0
87.728449489,221.0
87.754710054,216.0
87.780970619,207.0
87.807231184,212.0
87.833491749,217.0
87.859752314,223.0
87.886012879,215.0
87.912273444,201.0
87.938534009,236.0
87.964794574,213.0
87.991055139,234.0
88.017315704,198.0
88.043576269,211.0
88.069836834,206.0
88.096097399,235.0
88.122357964,197.0
88.148618529,228.0
88.174879094,204.0
88.201139659,222.0
88.227400224,200.0
88.253660789,241.0
88.279921354,239.0
88.306181920,204.0
88.332442485,227.0
88.358703050,206.0
88.384963615,224.0
88.411224180,212.0
88.437484745,232.0
88.463745310,191.0
88.490005875,233.0
88.516266440,195.0
88.542527005,224.0
88.568787570,201.0
88.595048135,217.0
88.621308700,205.0
88.647569265,215.0
88.673829830,207.0
88.700090395,229.0
88.726350960,238.0
88.752611525,211.0
88.778872090,212.0
88.805132655,205.0
88.831393220,222.0
88.857653785,224.0
88.883914350,187.0
88.910174915,242.0
88.936435480,192.0
88.962696045,215.0
88.988956610,202.0
89.015217175,218.0
89.041477740,220.0
89.067738305,214.0
89.093998870,205.0
89.120259435,229.0
89.146520000,227.0
89.172780565,205.0
89.199041130,200.0
89.225301695,240.0
89.251562260,230.0
89.277822825,229.0
89.304083390,193.0
89.330343955,201.0
89.356604520,210.0
89.382865085,183.0
89.409125650,192.0
89.435386215,197.0
89.461646780,214.0
89.487907345,221.0
89.514167910,197.0
89.540428475,234.0
89.566689040,207.0
89.592949605,220.0
89.619210170,193.0
89.645470735,208.0
89.671731300,215.0
89.697991865,215.0
89.724252430,204.0
89.750512995,199.0
89.776773560,204.0
89.803034125,219.0
89.829294690,238.0
89.855555255,181.0
89.881815820,214.0
89.908076385,201.0
89.934336950,199.0
89.960597515,242.0
89.986858080,230.0
