[Measurement conditions]
Sample identification,
Comment - 1,"Configuration=Stage for flat samples/holders, Owner=User-1, Creation date=3/27/2015 11:56:23 AM"
Comment - 2,"Goniometer=Theta/Theta; Minimum step size 2Theta:0.0001; Minimum step size Omega:0.0001"
Comment - 3,"Sample stage=Stage for flat samples/holders"
Comment - 4,"Diffractometer system=EMPYREAN"
Comment - 5,"Measurement program=C:\PANalytical\Data Collector\Programs\Powder - Copy.xrdmp, Identifier={BEEA10DD-8FD6-4721-8940-4FBC5A4262A1}"
Comment - 6,"Fine Calibration Offset for 2Theta = -0.0130 deg"
Comment - 7,"Fine Calibration Offset for Omega = -0.0070 deg"
Anode material,Cu
K-Alpha1 wavelength,1.5405980
K-Alpha2 wavelength,1.5444260
Ratio K-Alpha2/K-Alpha1,0.500
Divergence slit,Fixed,0.38mm
Monochromator used,NO
Generator voltage, 40
Tube current, 35
File date and time,24/Jul/2017 16:34
Unit cell,
h k l, 0 0 0
Scan axis,Gonio
Scan range,5.020799997,89.999988363
Scan step size,0.0262606
No. of points, 3236
Scan type,CONTINUOUS
Time per step,18.615
[Scan points]
Angle,Intensity
5.033930280,1190.0
5.060190845,1101.0
5.086451410,1155.0
5.112711975,1147.0
5.138972540,1147.0
5.165233105,1133.0
5.191493670,1179.0
5.217754235,1202.0
5.244014800,1207.0
5.270275365,1159.0
5.296535930,1214.0
5.322796495,1144.0
5.349057060,1148.0
5.375317625,1154.0
5.401578190,1159.0
5.427838755,1110.0
5.454099320,1216.0
5.480359885,1192.0
5.506620450,1194.0
5.532881015,1076.0
5.559141580,1153.0
5.585402145,1133.0
5.611662710,1147.0
5.637923275,1144.0
5.664183840,1143.0
5.690444405,1184.0
5.716704970,1115.0
5.742965535,1170.0
5.769226100,1191.0
5.795486665,1141.0
5.821747230,1184.0
5.848007795,1204.0
5.874268360,1212.0
5.900528925,1199.0
5.926789490,1188.0
5.953050055,1092.0
5.979310620,1169.0
6.005571185,1160.0
6.031831750,1137.0
6.058092315,1159.0
6.084352880,1184.0
6.110613445,1195.0
6.136874010,1175.0
6.163134575,1146.0
6.189395140,1170.0
6.215655705,1104.0
6.241916270,1167.0
6.268176835,1145.0
6.294437400,1209.0
6.320697965,1122.0
6.346958530,1185.0
6.373219095,1152.0
6.399479660,1208.0
6.425740225,1221.0
6.452000790,1225.0
6.478261355,1215.0
6.504521920,1171.0
6.530782485,1204.0
6.557043050,1191.0
6.583303615,1133.0
6.609564180,1180.0
6.635824745,1233.0
6.662085310,1099.0
6.688345875,1168.0
6.714606440,1208.0
6.740867006,1215.0
6.767127571,1117.0
6.793388136,1138.0
6.819648701,1141.0
6.845909266,1145.0
6.872169831,1153.0
6.898430396,1154.0
6.924690961,1183.0
6.950951526,1137.0
6.977212091,1145.0
7.003472656,1182.0
7.029733221,1136.0
7.055993786,1150.0
7.082254351,1212.0
7.108514916,1189.0
7.134775481,1182.0
7.161036046,1155.0
7.187296611,1161.0
7.213557176,1137.0
7.239817741,1142.0
7.266078306,1239.0
7.292338871,1210.0
7.318599436,1205.0
7.344860001,1164.0
7.371120566,1192.0
7.397381131,1135.0
7.423641696,1202.0
7.449902261,1220.0
7.476162826,1162.0
7.502423391,1193.0
7.528683956,1146.0
7.554944521,1222.0
7.581205086,1167.0
7.607465651,1187.0
7.633726216,1164.0
7.659986781,1174.0
7.686247346,1152.0
7.712507911,1161.0
7.738768476,1186.0
7.765029041,1185.0
7.791289606,1118.0
7.817550171,1220.0
7.843810736,1146.0
7.870071301,1195.0
7.896331866,1199.0
7.922592431,1106.0
7.948852996,1189.0
7.975113561,1177.0
8.001374126,1190.0
8.027634691,1162.0
8.053895256,1196.0
8.080155821,1213.0
8.106416386,1116.0
8.132676951,1153.0
8.158937516,1174.0
8.185198081,1181.0
8.211458646,1091.0
8.237719211,1146.0
8.263979776,1144.0
8.290240341,1155.0
8.316500906,1114.0
8.342761471,1149.0
8.369022036,1167.0
8.395282601,1132.0
8.421543166,1092.0
8.447803731,1256.0
8.474064296,1158.0
8.500324861,1183.0
8.526585426,1198.0
8.552845991,1174.0
8.579106556,1215.0
8.605367121,1200.0
8.631627686,1201.0
8.657888251,1186.0
8.684148816,1156.0
8.710409381,1208.0
8.736669946,1183.0
8.762930511,1158.0
8.789191076,1237.0
8.815451641,1261.0
8.841712206,1200.0
8.867972771,1210.0
8.894233336,1148.0
8.920493901,1261.0
8.946754466,1183.0
8.973015031,1170.0
8.999275596,1206.0
9.025536161,1228.0
9.051796726,1169.0
9.078057291,1293.0
9.104317856,1232.0
9.130578421,1227.0
9.156838986,1276.0
9.183099551,1232.0
9.209360116,1254.0
9.235620681,1213.0
9.261881246,1288.0
9.288141811,1191.0
9.314402376,1178.0
9.340662941,1303.0
9.366923506,1218.0
9.393184071,1260.0
9.419444636,1270.0
9.445705201,1190.0
9.471965766,1253.0
9.498226331,1256.0
9.524486896,1213.0
9.550747461,1302.0
9.577008026,1300.0
9.603268591,1173.0
9.629529156,1267.0
9.655789721,1314.0
9.682050286,1281.0
9.708310851,1206.0
9.734571416,1227.0
9.760831981,1216.0
9.787092546,1199.0
9.813353111,1240.0
9.839613676,1248.0
9.865874241,1191.0
9.892134806,1202.0
9.918395371,1210.0
9.944655936,1224.0
9.970916501,1204.0
9.997177066,1256.0
10.023437631,1221.0
10.049698196,1264.0
10.075958761,1285.0
10.102219326,1214.0
10.128479891,1240.0
10.154740457,1241.0
10.181001022,1183.0
10.207261587,1201.0
10.233522152,1127.0
10.259782717,1228.0
10.286043282,1203.0
10.312303847,1194.0
10.338564412,1207.0
10.364824977,1146.0
10.391085542,1128.0
10.417346107,1223.0
10.443606672,1099.0
10.469867237,1153.0
10.496127802,1206.0
10.522388367,1247.0
10.548648932,1207.0
10.574909497,1176.0
10.601170062,1094.0
10.627430627,1188.0
10.653691192,1150.0
10.679951757,1229.0
10.706212322,1164.0
10.732472887,1188.0
10.758733452,1166.0
10.784994017,1179.0
10.811254582,1144.0
10.837515147,1137.0
10.863775712,1200.0
10.890036277,1161.0
10.916296842,1173.0
10.942557407,1157.0
10.968817972,1114.0
10.995078537,1174.0
11.021339102,1194.0
11.047599667,1156.0
11.073860232,1195.0
11.100120797,1201.0
11.126381362,1125.0
11.152641927,1125.0
11.178902492,1060.0
11.205163057,1192.0
11.231423622,1077.0
11.257684187,1149.0
11.283944752,1134.0
11.310205317,1143.0
11.336465882,1102.0
11.362726447,1098.0
11.388987012,1078.0
11.415247577,1159.0
11.441508142,1199.0
11.467768707,1179.0
11.494029272,1085.0
11.520289837,1115.0
11.546550402,1152.0
11.572810967,1070.0
11.599071532,1145.0
11.625332097,1119.0
11.651592662,1138.0
11.677853227,1192.0
11.704113792,1159.0
11.730374357,1105.0
11.756634922,1142.0
11.782895487,1124.0
11.809156052,1138.0
11.835416617,1118.0
11.861677182,1108.0
11.887937747,1130.0
11.914198312,1199.0
11.940458877,1142.0
11.966719442,1137.0
11.992980007,1153.0
12.019240572,1107.0
12.045501137,1157.0
12.071761702,1090.0
12.098022267,1136.0
12.124282832,1197.0
12.150543397,1162.0
12.176803962,1121.0
12.203064527,1115.0
12.229325092,1144.0
12.255585657,1150.0
12.281846222,1159.0
12.308106787,1095.0
12.334367352,1139.0
12.360627917,1122.0
12.386888482,1059.0
12.413149047,1138.0
12.439409612,1146.0
12.465670177,1148.0
12.491930742,1187.0
12.518191307,1148.0
12.544451872,1097.0
12.570712437,1115.0
12.596973002,1119.0
12.623233567,1129.0
12.649494132,1134.0
12.675754697,1205.0
12.702015262,1131.0
12.728275827,1169.0
12.754536392,1124.0
12.780796957,1140.0
12.807057522,1164.0
12.833318087,1151.0
12.859578652,1184.0
12.885839217,1136.0
12.912099782,1170.0
12.938360347,1147.0
12.964620912,1155.0
12.990881477,1224.0
13.017142042,1214.0
13.043402607,1182.0
13.069663172,1189.0
13.095923737,1223.0
13.122184302,1176.0
13.148444867,1181.0
13.174705432,1182.0
13.200965997,1224.0
13.227226562,1162.0
13.253487127,1208.0
13.279747692,1210.0
13.306008257,1195.0
13.332268822,1228.0
13.358529387,1220.0
13.384789952,1184.0
13.411050517,1180.0
13.437311082,1218.0
13.463571647,1165.0
13.489832212,1153.0
13.516092777,1268.0
13.542353343,1249.0
13.568613908,1176.0
13.594874473,1135.0
13.621135038,1205.0
13.647395603,1277.0
13.673656168,1220.0
13.699916733,1202.0
13.726177298,1270.0
13.752437863,1193.0
13.778698428,1156.0
13.804958993,1206.0
13.831219558,1200.0
13.857480123,1265.0
13.883740688,1227.0
13.910001253,1238.0
13.936261818,1286.0
13.962522383,1266.0
13.988782948,1245.0
14.015043513,1237.0
14.041304078,1193.0
14.067564643,1269.0
14.093825208,1261.0
14.120085773,1181.0
14.146346338,1192.0
14.172606903,1209.0
14.198867468,1271.0
14.225128033,1293.0
14.251388598,1235.0
14.277649163,1208.0
14.303909728,1184.0
14.330170293,1238.0
14.356430858,1283.0
14.382691423,1217.0
14.408951988,1282.0
14.435212553,1212.0
14.461473118,1238.0
14.487733683,1160.0
14.513994248,1275.0
14.540254813,1181.0
14.566515378,1314.0
14.592775943,1315.0
14.619036508,1243.0
14.645297073,1180.0
14.671557638,1196.0
14.697818203,1208.0
14.724078768,1201.0
14.750339333,1264.0
14.776599898,1242.0
14.802860463,1201.0
14.829121028,1241.0
14.855381593,1231.0
14.881642158,1226.0
14.907902723,1266.0
14.934163288,1195.0
14.960423853,1187.0
14.986684418,1221.0
15.012944983,1176.0
15.039205548,1091.0
15.065466113,1129.0
15.091726678,1161.0
15.117987243,1133.0
15.144247808,1109.0
15.170508373,1066.0
15.196768938,1124.0
15.223029503,1128.0
15.249290068,1187.0
15.275550633,1112.0
15.301811198,1095.0
15.328071763,1103.0
15.354332328,1043.0
15.380592893,1029.0
15.406853458,1077.0
15.433114023,1072.0
15.459374588,965.0
15.485635153,1079.0
15.511895718,1017.0
15.538156283,969.0
15.564416848,967.0
15.590677413,1068.0
15.616937978,979.0
15.643198543,964.0
15.669459108,937.0
15.695719673,937.0
15.721980238,948.0
15.748240803,955.0
15.774501368,854.0
15.800761933,941.0
15.827022498,941.0
15.853283063,947.0
15.879543628,879.0
15.905804193,895.0
15.932064758,883.0
15.958325323,847.0
15.984585888,854.0
16.010846453,851.0
16.037107018,815.0
16.063367583,876.0
16.089628148,897.0
16.115888713,858.0
16.142149278,844.0
16.168409843,885.0
16.194670408,825.0
16.220930973,800.0
16.247191538,846.0
16.273452103,861.0
16.299712668,781.0
16.325973233,815.0
16.352233798,852.0
16.378494363,798.0
16.404754928,810.0
16.431015493,801.0
16.457276058,769.0
16.483536623,824.0
16.509797188,826.0
16.536057753,793.0
16.562318318,837.0
16.588578883,804.0
16.614839448,767.0
16.641100013,858.0
16.667360578,775.0
16.693621143,804.0
16.719881708,762.0
16.746142273,807.0
16.772402838,870.0
16.798663403,739.0
16.824923968,777.0
16.851184533,730.0
16.877445098,768.0
16.903705663,822.0
16.929966229,760.0
16.956226794,744.0
16.982487359,784.0
17.008747924,770.0
17.035008489,707.0
17.061269054,757.0
17.087529619,782.0
17.113790184,790.0
17.140050749,754.0
17.166311314,686.0
17.192571879,775.0
17.218832444,781.0
17.245093009,786.0
17.271353574,748.0
17.297614139,797.0
17.323874704,743.0
17.350135269,799.0
17.376395834,749.0
17.402656399,714.0
17.428916964,740.0
17.455177529,734.0
17.481438094,733.0
17.507698659,733.0
17.533959224,771.0
17.560219789,733.0
17.586480354,729.0
17.612740919,722.0
17.639001484,735.0
17.665262049,727.0
17.691522614,748.0
17.717783179,811.0
17.744043744,697.0
17.770304309,663.0
17.796564874,730.0
17.822825439,696.0
17.849086004,690.0
17.875346569,783.0
17.901607134,745.0
17.927867699,710.0
17.954128264,726.0
17.980388829,742.0
18.006649394,695.0
18.032909959,723.0
18.059170524,676.0
18.085431089,765.0
18.111691654,727.0
18.137952219,745.0
18.164212784,699.0
18.190473349,667.0
18.216733914,682.0
18.242994479,742.0
18.269255044,753.0
18.295515609,727.0
18.321776174,693.0
18.348036739,722.0
18.374297304,752.0
18.400557869,727.0
18.426818434,704.0
18.453078999,713.0
18.479339564,678.0
18.505600129,736.0
18.531860694,737.0
18.558121259,705.0
18.584381824,649.0
18.610642389,698.0
18.636902954,714.0
18.663163519,702.0
18.689424084,721.0
18.715684649,721.0
18.741945214,675.0
18.768205779,717.0
18.794466344,688.0
18.820726909,769.0
18.846987474,658.0
18.873248039,700.0
18.899508604,704.0
18.925769169,705.0
18.952029734,710.0
18.978290299,764.0
19.004550864,760.0
19.030811429,709.0
19.057071994,731.0
19.083332559,710.0
19.109593124,703.0
19.135853689,676.0
19.162114254,731.0
19.188374819,680.0
19.214635384,680.0
19.240895949,714.0
19.267156514,689.0
19.293417079,678.0
19.319677644,733.0
19.345938209,654.0
19.372198774,706.0
19.398459339,724.0
19.424719904,669.0
19.450980469,764.0
19.477241034,748.0
19.503501599,738.0
19.529762164,648.0
19.556022729,721.0
19.582283294,651.0
19.608543859,712.0
19.634804424,692.0
19.661064989,724.0
19.687325554,702.0
19.713586119,716.0
19.739846684,774.0
19.766107249,721.0
19.792367814,734.0
19.818628379,719.0
19.844888944,673.0
19.871149509,682.0
19.897410074,739.0
19.923670639,712.0
19.949931204,724.0
19.976191769,705.0
20.002452334,707.0
20.028712899,679.0
20.054973464,688.0
20.081234029,702.0
20.107494594,737.0
20.133755159,797.0
20.160015724,778.0
20.186276289,680.0
20.212536854,679.0
20.238797419,793.0
20.265057984,718.0
20.291318549,692.0
20.317579114,668.0
20.343839680,781.0
20.370100245,724.0
20.396360810,725.0
20.422621375,700.0
20.448881940,752.0
20.475142505,708.0
20.501403070,745.0
20.527663635,686.0
20.553924200,754.0
20.580184765,699.0
20.606445330,721.0
20.632705895,710.0
20.658966460,697.0
20.685227025,747.0
20.711487590,717.0
20.737748155,753.0
20.764008720,730.0
20.790269285,702.0
20.816529850,727.0
20.842790415,754.0
20.869050980,737.0
20.895311545,695.0
20.921572110,712.0
20.947832675,749.0
20.974093240,750.0
21.000353805,718.0
21.026614370,704.0
21.052874935,719.0
21.079135500,746.0
21.105396065,762.0
21.131656630,736.0
21.157917195,728.0
21.184177760,697.0
21.210438325,718.0
21.236698890,778.0
21.262959455,823.0
21.289220020,696.0
21.315480585,696.0
21.341741150,780.0
21.368001715,758.0
21.394262280,683.0
21.420522845,734.0
21.446783410,769.0
21.473043975,746.0
21.499304540,742.0
21.525565105,802.0
21.551825670,749.0
21.578086235,700.0
21.604346800,760.0
21.630607365,737.0
21.656867930,739.0
21.683128495,759.0
21.709389060,763.0
21.735649625,834.0
21.761910190,710.0
21.788170755,685.0
21.814431320,758.0
21.840691885,775.0
21.866952450,718.0
21.893213015,771.0
21.919473580,806.0
21.945734145,810.0
21.971994710,742.0
21.998255275,773.0
22.024515840,760.0
22.050776405,733.0
22.077036970,745.0
22.103297535,741.0
22.129558100,768.0
22.155818665,807.0
22.182079230,734.0
22.208339795,764.0
22.234600360,745.0
22.260860925,737.0
22.287121490,770.0
22.313382055,782.0
22.339642620,765.0
22.365903185,764.0
22.392163750,717.0
22.418424315,770.0
22.444684880,764.0
22.470945445,796.0
22.497206010,740.0
22.523466575,773.0
22.549727140,746.0
22.575987705,726.0
22.602248270,825.0
22.628508835,736.0
22.654769400,787.0
22.681029965,755.0
22.707290530,748.0
22.733551095,796.0
22.759811660,794.0
22.786072225,764.0
22.812332790,820.0
22.838593355,789.0
22.864853920,734.0
22.891114485,795.0
22.917375050,755.0
22.943635615,787.0
22.969896180,761.0
22.996156745,773.0
23.022417310,791.0
23.048677875,794.0
23.074938440,808.0
23.101199005,778.0
23.127459570,737.0
23.153720135,760.0
23.179980700,776.0
23.206241265,742.0
23.232501830,764.0
23.258762395,796.0
23.285022960,800.0
23.311283525,812.0
23.337544090,783.0
23.363804655,800.0
23.390065220,788.0
23.416325785,733.0
23.442586350,828.0
23.468846915,791.0
23.495107480,749.0
23.521368045,765.0
23.547628610,791.0
23.573889175,782.0
23.600149740,786.0
23.626410305,778.0
23.652670870,747.0
23.678931435,778.0
23.705192000,869.0
23.731452566,771.0
23.757713131,799.0
23.783973696,801.0
23.810234261,750.0
23.836494826,813.0
23.862755391,779.0
23.889015956,787.0
23.915276521,776.0
23.941537086,786.0
23.967797651,793.0
23.994058216,795.0
24.020318781,836.0
24.046579346,772.0
24.072839911,839.0
24.099100476,808.0
24.125361041,785.0
24.151621606,793.0
24.177882171,814.0
24.204142736,802.0
24.230403301,847.0
24.256663866,792.0
24.282924431,837.0
24.309184996,774.0
24.335445561,818.0
24.361706126,814.0
24.387966691,774.0
24.414227256,778.0
24.440487821,779.0
24.466748386,829.0
24.493008951,834.0
24.519269516,794.0
24.545530081,797.0
24.571790646,805.0
24.598051211,811.0
24.624311776,808.0
24.650572341,819.0
24.676832906,781.0
24.703093471,816.0
24.729354036,787.0
24.755614601,804.0
24.781875166,754.0
24.808135731,803.0
24.834396296,825.0
24.860656861,836.0
24.886917426,815.0
24.913177991,783.0
24.939438556,796.0
24.965699121,819.0
24.991959686,790.0
25.018220251,797.0
25.044480816,756.0
25.070741381,873.0
25.097001946,847.0
25.123262511,840.0
25.149523076,796.0
25.175783641,761.0
25.202044206,838.0
25.228304771,832.0
25.254565336,822.0
25.280825901,736.0
25.307086466,845.0
25.333347031,823.0
25.359607596,808.0
25.385868161,824.0
25.412128726,850.0
25.438389291,813.0
25.464649856,857.0
25.490910421,828.0
25.517170986,756.0
25.543431551,821.0
25.569692116,788.0
25.595952681,835.0
25.622213246,863.0
25.648473811,795.0
25.674734376,834.0
25.700994941,807.0
25.727255506,779.0
25.753516071,811.0
25.779776636,807.0
25.806037201,784.0
25.832297766,775.0
25.858558331,753.0
25.884818896,805.0
25.911079461,797.0
25.937340026,885.0
25.963600591,841.0
25.989861156,836.0
26.016121721,852.0
26.042382286,801.0
26.068642851,793.0
26.094903416,827.0
26.121163981,836.0
26.147424546,819.0
26.173685111,854.0
26.199945676,815.0
26.226206241,814.0
26.252466806,843.0
26.278727371,832.0
26.304987936,845.0
26.331248501,774.0
26.357509066,815.0
26.383769631,902.0
26.410030196,840.0
26.436290761,829.0
26.462551326,854.0
26.488811891,834.0
26.515072456,851.0
26.541333021,810.0
26.567593586,803.0
26.593854151,861.0
26.620114716,778.0
26.646375281,881.0
26.672635846,829.0
26.698896411,811.0
26.725156976,812.0
26.751417541,804.0
26.777678106,854.0
26.803938671,786.0
26.830199236,858.0
26.856459801,807.0
26.882720366,877.0
26.908980931,804.0
26.935241496,861.0
26.961502061,815.0
26.987762626,861.0
27.014023191,804.0
27.040283756,852.0
27.066544321,793.0
27.092804886,794.0
27.119065451,860.0
27.145326017,828.0
27.171586582,840.0
27.197847147,809.0
27.224107712,852.0
27.250368277,841.0
27.276628842,841.0
27.302889407,846.0
27.329149972,851.0
27.355410537,796.0
27.381671102,848.0
27.407931667,827.0
27.434192232,855.0
27.460452797,860.0
27.486713362,814.0
27.512973927,845.0
27.539234492,830.0
27.565495057,839.0
27.591755622,800.0
27.618016187,826.0
27.644276752,837.0
27.670537317,791.0
27.696797882,851.0
27.723058447,842.0
27.749319012,786.0
27.775579577,854.0
27.801840142,864.0
27.828100707,835.0
27.854361272,851.0
27.880621837,828.0
27.906882402,818.0
27.933142967,795.0
27.959403532,813.0
27.985664097,818.0
28.011924662,829.0
28.038185227,789.0
28.064445792,851.0
28.090706357,811.0
28.116966922,820.0
28.143227487,848.0
28.169488052,763.0
28.195748617,750.0
28.222009182,839.0
28.248269747,903.0
28.274530312,802.0
28.300790877,891.0
28.327051442,897.0
28.353312007,848.0
28.379572572,853.0
28.405833137,830.0
28.432093702,854.0
28.458354267,822.0
28.484614832,840.0
28.510875397,831.0
28.537135962,808.0
28.563396527,827.0
28.589657092,846.0
28.615917657,790.0
28.642178222,807.0
28.668438787,887.0
28.694699352,865.0
28.720959917,869.0
28.747220482,819.0
28.773481047,871.0
28.799741612,814.0
28.826002177,825.0
28.852262742,826.0
28.878523307,791.0
28.904783872,874.0
28.931044437,807.0
28.957305002,811.0
28.983565567,807.0
29.009826132,799.0
29.036086697,822.0
29.062347262,824.0
29.088607827,837.0
29.114868392,832.0
29.141128957,794.0
29.167389522,873.0
29.193650087,858.0
29.219910652,813.0
29.246171217,821.0
29.272431782,853.0
29.298692347,800.0
29.324952912,809.0
29.351213477,823.0
29.377474042,818.0
29.403734607,784.0
29.429995172,799.0
29.456255737,804.0
29.482516302,796.0
29.508776867,836.0
29.535037432,783.0
29.561297997,803.0
29.587558562,805.0
29.613819127,865.0
29.640079692,867.0
29.666340257,843.0
29.692600822,795.0
29.718861387,799.0
29.745121952,751.0
29.771382517,787.0
29.797643082,812.0
29.823903647,817.0
29.850164212,824.0
29.876424777,753.0
29.902685342,784.0
29.928945907,807.0
29.955206472,811.0
29.981467037,776.0
30.007727602,822.0
30.033988167,819.0
30.060248732,799.0
30.086509297,895.0
30.112769862,801.0
30.139030427,831.0
30.165290992,781.0
30.191551557,763.0
30.217812122,744.0
30.244072687,768.0
30.270333252,764.0
30.296593817,806.0
30.322854382,795.0
30.349114947,840.0
30.375375512,781.0
30.401636077,804.0
30.427896642,817.0
30.454157207,820.0
30.480417772,830.0
30.506678337,749.0
30.532938903,761.0
30.559199468,782.0
30.585460033,777.0
30.611720598,785.0
30.637981163,816.0
30.664241728,808.0
30.690502293,796.0
30.716762858,757.0
30.743023423,867.0
30.769283988,752.0
30.795544553,780.0
30.821805118,751.0
30.848065683,793.0
30.874326248,768.0
30.900586813,752.0
30.926847378,769.0
30.953107943,723.0
30.979368508,756.0
31.005629073,721.0
31.031889638,744.0
31.058150203,720.0
31.084410768,736.0
31.110671333,676.0
31.136931898,699.0
31.163192463,806.0
31.189453028,770.0
31.215713593,775.0
31.241974158,745.0
31.268234723,696.0
31.294495288,751.0
31.320755853,733.0
31.347016418,769.0
31.373276983,780.0
31.399537548,775.0
31.425798113,715.0
31.452058678,697.0
31.478319243,730.0
31.504579808,778.0
31.530840373,735.0
31.557100938,754.0
31.583361503,706.0
31.609622068,776.0
31.635882633,720.0
31.662143198,743.0
31.688403763,747.0
31.714664328,747.0
31.740924893,695.0
31.767185458,732.0
31.793446023,698.0
31.819706588,713.0
31.845967153,771.0
31.872227718,745.0
31.898488283,726.0
31.924748848,699.0
31.951009413,741.0
31.977269978,731.0
32.003530543,708.0
32.029791108,676.0
32.056051673,693.0
32.082312238,708.0
32.108572803,716.0
32.134833368,716.0
32.161093933,710.0
32.187354498,710.0
32.213615063,725.0
32.239875628,724.0
32.266136193,721.0
32.292396758,745.0
32.318657323,697.0
32.344917888,709.0
32.371178453,717.0
32.397439018,678.0
32.423699583,703.0
32.449960148,693.0
32.476220713,736.0
32.502481278,703.0
32.528741843,661.0
32.555002408,677.0
32.581262973,707.0
32.607523538,742.0
32.633784103,734.0
32.660044668,684.0
32.686305233,725.0
32.712565798,665.0
32.738826363,719.0
32.765086928,679.0
32.791347493,678.0
32.817608058,691.0
32.843868623,660.0
32.870129188,680.0
32.896389753,685.0
32.922650318,695.0
32.948910883,662.0
32.975171448,673.0
33.001432013,674.0
33.027692578,611.0
33.053953143,693.0
33.080213708,686.0
33.106474273,694.0
33.132734838,651.0
33.158995403,645.0
33.185255968,720.0
33.211516533,680.0
33.237777098,641.0
33.264037663,661.0
33.290298228,629.0
33.316558793,648.0
33.342819358,669.0
33.369079923,678.0
33.395340488,628.0
33.421601053,691.0
33.447861618,682.0
33.474122183,691.0
33.500382748,633.0
33.526643313,622.0
33.552903878,666.0
33.579164443,686.0
33.605425008,650.0
33.631685573,687.0
33.657946138,658.0
33.684206703,646.0
33.710467268,674.0
33.736727833,698.0
33.762988398,629.0
33.789248963,617.0
33.815509528,682.0
33.841770093,626.0
33.868030658,650.0
33.894291223,638.0
33.920551789,651.0
33.946812354,643.0
33.973072919,684.0
33.999333484,651.0
34.025594049,590.0
34.051854614,635.0
34.078115179,663.0
34.104375744,640.0
34.130636309,629.0
34.156896874,621.0
34.183157439,631.0
34.209418004,636.0
34.235678569,689.0
34.261939134,643.0
34.288199699,623.0
34.314460264,640.0
34.340720829,705.0
34.366981394,622.0
34.393241959,663.0
34.419502524,587.0
34.445763089,642.0
34.472023654,657.0
34.498284219,642.0
34.524544784,677.0
34.550805349,645.0
34.577065914,620.0
34.603326479,617.0
34.629587044,645.0
34.655847609,646.0
34.682108174,644.0
34.708368739,680.0
34.734629304,599.0
34.760889869,630.0
34.787150434,622.0
34.813410999,614.0
34.839671564,625.0
34.865932129,666.0
34.892192694,622.0
34.918453259,599.0
34.944713824,648.0
34.970974389,625.0
34.997234954,674.0
35.023495519,622.0
35.049756084,559.0
35.076016649,650.0
35.102277214,585.0
35.128537779,572.0
35.154798344,607.0
35.181058909,630.0
35.207319474,611.0
35.233580039,634.0
35.259840604,649.0
35.286101169,615.0
35.312361734,623.0
35.338622299,623.0
35.364882864,640.0
35.391143429,639.0
35.417403994,612.0
35.443664559,626.0
35.469925124,611.0
35.496185689,585.0
35.522446254,580.0
35.548706819,593.0
35.574967384,599.0
35.601227949,621.0
35.627488514,587.0
35.653749079,621.0
35.680009644,612.0
35.706270209,614.0
35.732530774,616.0
35.758791339,650.0
35.785051904,635.0
35.811312469,630.0
35.837573034,654.0
35.863833599,596.0
35.890094164,608.0
35.916354729,579.0
35.942615294,568.0
35.968875859,611.0
35.995136424,592.0
36.021396989,660.0
36.047657554,648.0
36.073918119,567.0
36.100178684,647.0
36.126439249,590.0
36.152699814,644.0
36.178960379,610.0
36.205220944,639.0
36.231481509,617.0
36.257742074,601.0
36.284002639,610.0
36.310263204,569.0
36.336523769,580.0
36.362784334,589.0
36.389044899,614.0
36.415305464,615.0
36.441566029,673.0
36.467826594,635.0
36.494087159,603.0
36.520347724,589.0
36.546608289,610.0
36.572868854,615.0
36.599129419,593.0
36.625389984,599.0
36.651650549,640.0
36.677911114,584.0
36.704171679,615.0
36.730432244,576.0
36.756692809,618.0
36.782953374,574.0
36.809213939,595.0
36.835474504,577.0
36.861735069,630.0
36.887995634,633.0
36.914256199,594.0
36.940516764,623.0
36.966777329,631.0
36.993037894,607.0
37.019298459,652.0
37.045559024,590.0
37.071819589,595.0
37.098080154,588.0
37.124340719,576.0
37.150601284,627.0
37.176861849,636.0
37.203122414,551.0
37.229382979,571.0
37.255643544,628.0
37.281904109,606.0
37.308164674,606.0
37.334425240,628.0
37.360685805,605.0
37.386946370,636.0
37.413206935,616.0
37.439467500,593.0
37.465728065,596.0
37.491988630,568.0
37.518249195,608.0
37.544509760,623.0
37.570770325,630.0
37.597030890,612.0
37.623291455,660.0
37.649552020,558.0
37.675812585,626.0
37.702073150,651.0
37.728333715,638.0
37.754594280,582.0
37.780854845,588.0
37.807115410,627.0
37.833375975,632.0
37.859636540,644.0
37.885897105,631.0
37.912157670,613.0
37.938418235,614.0
37.964678800,623.0
37.990939365,596.0
38.017199930,609.0
38.043460495,653.0
38.069721060,615.0
38.095981625,628.0
38.122242190,626.0
38.148502755,609.0
38.174763320,598.0
38.201023885,660.0
38.227284450,633.0
38.253545015,578.0
38.279805580,616.0
38.306066145,659.0
38.332326710,613.0
38.358587275,587.0
38.384847840,634.0
38.411108405,685.0
38.437368970,611.0
38.463629535,632.0
38.489890100,661.0
38.516150665,651.0
38.542411230,636.0
38.568671795,624.0
38.594932360,661.0
38.621192925,589.0
38.647453490,650.0
38.673714055,631.0
38.699974620,658.0
38.726235185,622.0
38.752495750,661.0
38.778756315,613.0
38.805016880,683.0
38.831277445,686.0
38.857538010,679.0
38.883798575,710.0
38.910059140,658.0
38.936319705,622.0
38.962580270,682.0
38.988840835,672.0
39.015101400,688.0
39.041361965,673.0
39.067622530,683.0
39.093883095,658.0
39.120143660,669.0
39.146404225,673.0
39.172664790,715.0
39.198925355,707.0
39.225185920,735.0
39.251446485,733.0
39.277707050,700.0
39.303967615,751.0
39.330228180,723.0
39.356488745,759.0
39.382749310,717.0
39.409009875,710.0
39.435270440,706.0
39.461531005,760.0
39.487791570,666.0
39.514052135,762.0
39.540312700,763.0
39.566573265,786.0
39.592833830,789.0
39.619094395,820.0
39.645354960,775.0
39.671615525,785.0
39.697876090,848.0
39.724136655,804.0
39.750397220,802.0
39.776657785,889.0
39.802918350,896.0
39.829178915,873.0
39.855439480,886.0
39.881700045,858.0
39.907960610,976.0
39.934221175,938.0
39.960481740,940.0
39.986742305,963.0
40.013002870,939.0
40.039263435,966.0
40.065524000,1016.0
40.091784565,970.0
40.118045130,992.0
40.144305695,1013.0
40.170566260,1049.0
40.196826825,1075.0
40.223087390,1034.0
40.249347955,1127.0
40.275608520,1104.0
40.301869085,1172.0
40.328129650,1122.0
40.354390215,1140.0
40.380650780,1104.0
40.406911345,1141.0
40.433171910,1159.0
40.459432475,1183.0
40.485693040,1207.0
40.511953605,1147.0
40.538214170,1150.0
40.564474735,1212.0
40.590735300,1145.0
40.616995865,1151.0
40.643256430,1225.0
40.669516995,1167.0
40.695777560,1168.0
40.722038126,1160.0
40.748298691,1203.0
40.774559256,1126.0
40.800819821,1184.0
40.827080386,1137.0
40.853340951,1141.0
40.879601516,1214.0
40.905862081,1180.0
40.932122646,1138.0
40.958383211,1191.0
40.984643776,1202.0
41.010904341,1139.0
41.037164906,1153.0
41.063425471,1050.0
41.089686036,1138.0
41.115946601,1205.0
41.142207166,1103.0
41.168467731,1117.0
41.194728296,1089.0
41.220988861,1155.0
41.247249426,1090.0
41.273509991,1123.0
41.299770556,1165.0
41.326031121,1163.0
41.352291686,1150.0
41.378552251,1101.0
41.404812816,1123.0
41.431073381,1114.0
41.457333946,1061.0
41.483594511,1162.0
41.509855076,1072.0
41.536115641,1124.0
41.562376206,1101.0
41.588636771,1077.0
41.614897336,1126.0
41.641157901,1080.0
41.667418466,1087.0
41.693679031,1099.0
41.719939596,1025.0
41.746200161,1131.0
41.772460726,1123.0
41.798721291,999.0
41.824981856,1076.0
41.851242421,1010.0
41.877502986,1141.0
41.903763551,1043.0
41.930024116,984.0
41.956284681,1053.0
41.982545246,1099.0
42.008805811,1063.0
42.035066376,1067.0
42.061326941,1087.0
42.087587506,1041.0
42.113848071,1041.0
42.140108636,1003.0
42.166369201,1056.0
42.192629766,1019.0
42.218890331,1016.0
42.245150896,1007.0
42.271411461,984.0
42.297672026,995.0
42.323932591,953.0
42.350193156,1004.0
42.376453721,971.0
42.402714286,1029.0
42.428974851,967.0
42.455235416,972.0
42.481495981,1002.0
42.507756546,990.0
42.534017111,975.0
42.560277676,916.0
42.586538241,932.0
42.612798806,1009.0
42.639059371,920.0
42.665319936,930.0
42.691580501,968.0
42.717841066,881.0
42.744101631,893.0
42.770362196,975.0
42.796622761,885.0
42.822883326,924.0
42.849143891,950.0
42.875404456,885.0
42.901665021,880.0
42.927925586,912.0
42.954186151,870.0
42.980446716,918.0
43.006707281,910.0
43.032967846,906.0
43.059228411,844.0
43.085488976,830.0
43.111749541,863.0
43.138010106,870.0
43.164270671,874.0
43.190531236,868.0
43.216791801,809.0
43.243052366,795.0
43.269312931,903.0
43.295573496,828.0
43.321834061,858.0
43.348094626,864.0
43.374355191,832.0
43.400615756,804.0
43.426876321,849.0
43.453136886,800.0
43.479397451,785.0
43.505658016,813.0
43.531918581,831.0
43.558179146,783.0
43.584439711,787.0
43.610700276,849.0
43.636960841,766.0
43.663221406,807.0
43.689481971,747.0
43.715742536,747.0
43.742003101,783.0
43.768263666,790.0
43.794524231,768.0
43.820784796,731.0
43.847045361,771.0
43.873305926,725.0
43.899566491,747.0
43.925827056,748.0
43.952087621,770.0
43.978348186,765.0
44.004608751,696.0
44.030869316,720.0
44.057129881,777.0
44.083390446,712.0
44.109651011,674.0
44.135911577,701.0
44.162172142,730.0
44.188432707,651.0
44.214693272,716.0
44.240953837,680.0
44.267214402,721.0
44.293474967,705.0
44.319735532,655.0
44.345996097,734.0
44.372256662,732.0
44.398517227,700.0
44.424777792,736.0
44.451038357,673.0
44.477298922,704.0
44.503559487,678.0
44.529820052,653.0
44.556080617,671.0
44.582341182,644.0
44.608601747,647.0
44.634862312,651.0
44.661122877,690.0
44.687383442,714.0
44.713644007,644.0
44.739904572,596.0
44.766165137,629.0
44.792425702,623.0
44.818686267,654.0
44.844946832,614.0
44.871207397,634.0
44.897467962,630.0
44.923728527,624.0
44.949989092,618.0
44.976249657,657.0
45.002510222,625.0
45.028770787,605.0
45.055031352,612.0
45.081291917,563.0
45.107552482,596.0
45.133813047,625.0
45.160073612,607.0
45.186334177,634.0
45.212594742,578.0
45.238855307,615.0
45.265115872,618.0
45.291376437,562.0
45.317637002,598.0
45.343897567,578.0
45.370158132,581.0
45.396418697,556.0
45.422679262,548.0
45.448939827,588.0
45.475200392,591.0
45.501460957,609.0
45.527721522,595.0
45.553982087,590.0
45.580242652,646.0
45.606503217,535.0
45.632763782,574.0
45.659024347,585.0
45.685284912,533.0
45.711545477,559.0
45.737806042,574.0
45.764066607,566.0
45.790327172,545.0
45.816587737,531.0
45.842848302,575.0
45.869108867,528.0
45.895369432,600.0
45.921629997,558.0
45.947890562,577.0
45.974151127,524.0
46.000411692,549.0
46.026672257,576.0
46.052932822,569.0
46.079193387,529.0
46.105453952,557.0
46.131714517,559.0
46.157975082,525.0
46.184235647,548.0
46.210496212,541.0
46.236756777,524.0
46.263017342,514.0
46.289277907,574.0
46.315538472,534.0
46.341799037,533.0
46.368059602,535.0
46.394320167,512.0
46.420580732,587.0
46.446841297,505.0
46.473101862,482.0
46.499362427,559.0
46.525622992,521.0
46.551883557,505.0
46.578144122,507.0
46.604404687,510.0
46.630665252,479.0
46.656925817,488.0
46.683186382,542.0
46.709446947,517.0
46.735707512,506.0
46.761968077,530.0
46.788228642,551.0
46.814489207,510.0
46.840749772,505.0
46.867010337,509.0
46.893270902,480.0
46.919531467,534.0
46.945792032,525.0
46.972052597,492.0
46.998313162,492.0
47.024573727,507.0
47.050834292,519.0
47.077094857,480.0
47.103355422,526.0
47.129615987,498.0
47.155876552,492.0
47.182137117,457.0
47.208397682,479.0
47.234658247,482.0
47.260918812,507.0
47.287179377,453.0
47.313439942,528.0
47.339700507,509.0
47.365961072,467.0
47.392221637,464.0
47.418482202,490.0
47.444742767,491.0
47.471003332,472.0
47.497263897,484.0
47.523524463,459.0
47.549785028,457.0
47.576045593,493.0
47.602306158,512.0
47.628566723,493.0
47.654827288,459.0
47.681087853,502.0
47.707348418,440.0
47.733608983,457.0
47.759869548,504.0
47.786130113,441.0
47.812390678,475.0
47.838651243,432.0
47.864911808,456.0
47.891172373,482.0
47.917432938,431.0
47.943693503,456.0
47.969954068,450.0
47.996214633,478.0
48.022475198,433.0
48.048735763,465.0
48.074996328,422.0
48.101256893,457.0
48.127517458,446.0
48.153778023,460.0
48.180038588,452.0
48.206299153,430.0
48.232559718,433.0
48.258820283,434.0
48.285080848,421.0
48.311341413,427.0
48.337601978,490.0
48.363862543,430.0
48.390123108,448.0
48.416383673,411.0
48.442644238,431.0
48.468904803,444.0
48.495165368,430.0
48.521425933,440.0
48.547686498,481.0
48.573947063,426.0
48.600207628,416.0
48.626468193,436.0
48.652728758,443.0
48.678989323,384.0
48.705249888,382.0
48.731510453,416.0
48.757771018,418.0
48.784031583,405.0
48.810292148,441.0
48.836552713,414.0
48.862813278,479.0
48.889073843,419.0
48.915334408,430.0
48.941594973,398.0
48.967855538,421.0
48.994116103,365.0
49.020376668,391.0
49.046637233,417.0
49.072897798,395.0
49.099158363,461.0
49.125418928,377.0
49.151679493,384.0
49.177940058,442.0
49.204200623,418.0
49.230461188,424.0
49.256721753,398.0
49.282982318,441.0
49.309242883,432.0
49.335503448,406.0
49.361764013,417.0
49.388024578,372.0
49.414285143,418.0
49.440545708,377.0
49.466806273,404.0
49.493066838,377.0
49.519327403,416.0
49.545587968,390.0
49.571848533,376.0
49.598109098,396.0
49.624369663,373.0
49.650630228,379.0
49.676890793,365.0
49.703151358,392.0
49.729411923,413.0
49.755672488,402.0
49.781933053,376.0
49.808193618,361.0
49.834454183,369.0
49.860714748,380.0
49.886975313,376.0
49.913235878,400.0
49.939496443,402.0
49.965757008,358.0
49.992017573,404.0
50.018278138,386.0
50.044538703,344.0
50.070799268,390.0
50.097059833,374.0
50.123320398,371.0
50.149580963,382.0
50.175841528,352.0
50.202102093,380.0
50.228362658,439.0
50.254623223,403.0
50.280883788,382.0
50.307144353,402.0
50.333404918,376.0
50.359665483,363.0
50.385926048,374.0
50.412186613,391.0
50.438447178,372.0
50.464707743,354.0
50.490968308,384.0
50.517228873,384.0
50.543489438,368.0
50.569750003,344.0
50.596010568,381.0
50.622271133,374.0
50.648531698,358.0
50.674792263,361.0
50.701052828,404.0
50.727313393,381.0
50.753573958,362.0
50.779834523,401.0
50.806095088,347.0
50.832355653,418.0
50.858616218,380.0
50.884876783,369.0
50.911137349,382.0
50.937397914,333.0
50.963658479,329.0
50.989919044,381.0
51.016179609,381.0
51.042440174,350.0
51.068700739,358.0
51.094961304,364.0
51.121221869,381.0
51.147482434,366.0
51.173742999,355.0
51.200003564,349.0
51.226264129,321.0
51.252524694,351.0
51.278785259,360.0
51.305045824,349.0
51.331306389,399.0
51.357566954,364.0
51.383827519,392.0
51.410088084,363.0
51.436348649,355.0
51.462609214,353.0
51.488869779,344.0
51.515130344,350.0
51.541390909,361.0
51.567651474,376.0
51.593912039,370.0
51.620172604,360.0
51.646433169,379.0
51.672693734,358.0
51.698954299,342.0
51.725214864,368.0
51.751475429,339.0
51.777735994,363.0
51.803996559,327.0
51.830257124,357.0
51.856517689,341.0
51.882778254,347.0
51.909038819,386.0
51.935299384,390.0
51.961559949,374.0
51.987820514,296.0
52.014081079,354.0
52.040341644,344.0
52.066602209,353.0
52.092862774,369.0
52.119123339,386.0
52.145383904,314.0
52.171644469,353.0
52.197905034,323.0
52.224165599,337.0
52.250426164,327.0
52.276686729,363.0
52.302947294,349.0
52.329207859,349.0
52.355468424,352.0
52.381728989,358.0
52.407989554,319.0
52.434250119,359.0
52.460510684,305.0
52.486771249,380.0
52.513031814,309.0
52.539292379,340.0
52.565552944,356.0
52.591813509,371.0
52.618074074,330.0
52.644334639,343.0
52.670595204,326.0
52.696855769,343.0
52.723116334,380.0
52.749376899,371.0
52.775637464,334.0
52.801898029,359.0
52.828158594,366.0
52.854419159,340.0
52.880679724,367.0
52.906940289,350.0
52.933200854,355.0
52.959461419,362.0
52.985721984,352.0
53.011982549,358.0
53.038243114,350.0
53.064503679,341.0
53.090764244,336.0
53.117024809,324.0
53.143285374,380.0
53.169545939,311.0
53.195806504,357.0
53.222067069,355.0
53.248327634,352.0
53.274588199,364.0
53.300848764,319.0
53.327109329,346.0
53.353369894,325.0
53.379630459,332.0
53.405891024,333.0
53.432151589,397.0
53.458412154,326.0
53.484672719,342.0
53.510933284,319.0
53.537193849,356.0
53.563454414,341.0
53.589714979,322.0
53.615975544,345.0
53.642236109,331.0
53.668496674,289.0
53.694757239,347.0
53.721017804,361.0
53.747278369,338.0
53.773538934,352.0
53.799799499,336.0
53.826060064,332.0
53.852320629,377.0
53.878581194,331.0
53.904841759,346.0
53.931102324,319.0
53.957362889,320.0
53.983623454,317.0
54.009884019,332.0
54.036144584,347.0
54.062405149,339.0
54.088665714,343.0
54.114926279,330.0
54.141186844,341.0
54.167447409,338.0
54.193707974,325.0
54.219968539,364.0
54.246229104,312.0
54.272489669,322.0
54.298750234,325.0
54.325010800,355.0
54.351271365,322.0
54.377531930,310.0
54.403792495,301.0
54.430053060,343.0
54.456313625,386.0
54.482574190,354.0
54.508834755,351.0
54.535095320,342.0
54.561355885,284.0
54.587616450,332.0
54.613877015,324.0
54.640137580,312.0
54.666398145,336.0
54.692658710,370.0
54.718919275,350.0
54.745179840,315.0
54.771440405,346.0
54.797700970,324.0
54.823961535,336.0
54.850222100,341.0
54.876482665,332.0
54.902743230,312.0
54.929003795,322.0
54.955264360,369.0
54.981524925,307.0
55.007785490,301.0
55.034046055,319.0
55.060306620,349.0
55.086567185,325.0
55.112827750,348.0
55.139088315,351.0
55.165348880,345.0
55.191609445,352.0
55.217870010,280.0
55.244130575,327.0
55.270391140,328.0
55.296651705,330.0
55.322912270,328.0
55.349172835,295.0
55.375433400,315.0
55.401693965,302.0
55.427954530,281.0
55.454215095,321.0
55.480475660,362.0
55.506736225,328.0
55.532996790,321.0
55.559257355,329.0
55.585517920,346.0
55.611778485,284.0
55.638039050,296.0
55.664299615,313.0
55.690560180,321.0
55.716820745,356.0
55.743081310,351.0
55.769341875,329.0
55.795602440,340.0
55.821863005,348.0
55.848123570,332.0
55.874384135,346.0
55.900644700,318.0
55.926905265,354.0
55.953165830,317.0
55.979426395,324.0
56.005686960,301.0
56.031947525,343.0
56.058208090,315.0
56.084468655,322.0
56.110729220,341.0
56.136989785,328.0
56.163250350,333.0
56.189510915,325.0
56.215771480,280.0
56.242032045,290.0
56.268292610,296.0
56.294553175,315.0
56.320813740,338.0
56.347074305,324.0
56.373334870,283.0
56.399595435,334.0
56.425856000,322.0
56.452116565,318.0
56.478377130,340.0
56.504637695,321.0
56.530898260,305.0
56.557158825,339.0
56.583419390,329.0
56.609679955,330.0
56.635940520,335.0
56.662201085,346.0
56.688461650,323.0
56.714722215,325.0
56.740982780,321.0
56.767243345,350.0
56.793503910,317.0
56.819764475,337.0
56.846025040,336.0
56.872285605,304.0
56.898546170,333.0
56.924806735,299.0
56.951067300,304.0
56.977327865,346.0
57.003588430,303.0
57.029848995,298.0
57.056109560,324.0
57.082370125,368.0
57.108630690,311.0
57.134891255,339.0
57.161151820,332.0
57.187412385,290.0
57.213672950,342.0
57.239933515,336.0
57.266194080,344.0
57.292454645,312.0
57.318715210,321.0
57.344975775,333.0
57.371236340,351.0
57.397496905,308.0
57.423757470,326.0
57.450018035,356.0
57.476278600,324.0
57.502539165,353.0
57.528799730,326.0
57.555060295,286.0
57.581320860,302.0
57.607581425,315.0
57.633841990,304.0
57.660102555,298.0
57.686363120,305.0
57.712623686,297.0
57.738884251,314.0
57.765144816,312.0
57.791405381,335.0
57.817665946,328.0
57.843926511,287.0
57.870187076,356.0
57.896447641,317.0
57.922708206,307.0
57.948968771,308.0
57.975229336,348.0
58.001489901,278.0
58.027750466,335.0
58.054011031,316.0
58.080271596,295.0
58.106532161,319.0
58.132792726,342.0
58.159053291,311.0
58.185313856,285.0
58.211574421,310.0
58.237834986,309.0
58.264095551,309.0
58.290356116,303.0
58.316616681,309.0
58.342877246,334.0
58.369137811,328.0
58.395398376,345.0
58.421658941,330.0
58.447919506,331.0
58.474180071,313.0
58.500440636,311.0
58.526701201,301.0
58.552961766,281.0
58.579222331,340.0
58.605482896,315.0
58.631743461,320.0
58.658004026,358.0
58.684264591,305.0
58.710525156,310.0
58.736785721,294.0
58.763046286,287.0
58.789306851,293.0
58.815567416,310.0
58.841827981,300.0
58.868088546,339.0
58.894349111,344.0
58.920609676,307.0
58.946870241,297.0
58.973130806,304.0
58.999391371,306.0
59.025651936,280.0
59.051912501,312.0
59.078173066,332.0
59.104433631,294.0
59.130694196,291.0
59.156954761,316.0
59.183215326,321.0
59.209475891,327.0
59.235736456,288.0
59.261997021,283.0
59.288257586,351.0
59.314518151,291.0
59.340778716,294.0
59.367039281,349.0
59.393299846,304.0
59.419560411,308.0
59.445820976,314.0
59.472081541,304.0
59.498342106,318.0
59.524602671,321.0
59.550863236,323.0
59.577123801,335.0
59.603384366,297.0
59.629644931,318.0
59.655905496,323.0
59.682166061,298.0
59.708426626,332.0
59.734687191,278.0
59.760947756,336.0
59.787208321,302.0
59.813468886,289.0
59.839729451,317.0
59.865990016,297.0
59.892250581,320.0
59.918511146,274.0
59.944771711,314.0
59.971032276,295.0
59.997292841,297.0
60.023553406,282.0
60.049813971,324.0
60.076074536,304.0
60.102335101,303.0
60.128595666,327.0
60.154856231,290.0
60.181116796,302.0
60.207377361,314.0
60.233637926,276.0
60.259898491,299.0
60.286159056,312.0
60.312419621,323.0
60.338680186,315.0
60.364940751,331.0
60.391201316,290.0
60.417461881,303.0
60.443722446,303.0
60.469983011,267.0
60.496243576,301.0
60.522504141,298.0
60.548764706,299.0
60.575025271,296.0
60.601285836,287.0
60.627546401,275.0
60.653806966,327.0
60.680067531,300.0
60.706328096,280.0
60.732588661,313.0
60.758849226,309.0
60.785109791,303.0
60.811370356,292.0
60.837630921,329.0
60.863891486,295.0
60.890152051,330.0
60.916412616,259.0
60.942673181,310.0
60.968933746,327.0
60.995194311,288.0
61.021454876,297.0
61.047715441,284.0
61.073976006,313.0
61.100236571,344.0
61.126497137,314.0
61.152757702,315.0
61.179018267,299.0
61.205278832,323.0
61.231539397,258.0
61.257799962,301.0
61.284060527,313.0
61.310321092,261.0
61.336581657,294.0
61.362842222,353.0
61.389102787,280.0
61.415363352,268.0
61.441623917,306.0
61.467884482,298.0
61.494145047,273.0
61.520405612,292.0
61.546666177,295.0
61.572926742,313.0
61.599187307,348.0
61.625447872,311.0
61.651708437,329.0
61.677969002,310.0
61.704229567,311.0
61.730490132,291.0
61.756750697,333.0
61.783011262,290.0
61.809271827,306.0
61.835532392,319.0
61.861792957,288.0
61.888053522,319.0
61.914314087,306.0
61.940574652,284.0
61.966835217,333.0
61.993095782,328.0
62.019356347,289.0
62.045616912,267.0
62.071877477,310.0
62.098138042,288.0
62.124398607,312.0
62.150659172,303.0
62.176919737,300.0
62.203180302,328.0
62.229440867,297.0
62.255701432,304.0
62.281961997,316.0
62.308222562,302.0
62.334483127,264.0
62.360743692,306.0
62.387004257,309.0
62.413264822,248.0
62.439525387,316.0
62.465785952,274.0
62.492046517,309.0
62.518307082,292.0
62.544567647,282.0
62.570828212,301.0
62.597088777,314.0
62.623349342,307.0
62.649609907,317.0
62.675870472,298.0
62.702131037,273.0
62.728391602,321.0
62.754652167,318.0
62.780912732,270.0
62.807173297,264.0
62.833433862,264.0
62.859694427,270.0
62.885954992,290.0
62.912215557,310.0
62.938476122,286.0
62.964736687,277.0
62.990997252,321.0
63.017257817,274.0
63.043518382,299.0
63.069778947,306.0
63.096039512,269.0
63.122300077,336.0
63.148560642,305.0
63.174821207,306.0
63.201081772,307.0
63.227342337,327.0
63.253602902,290.0
63.279863467,283.0
63.306124032,283.0
63.332384597,283.0
63.358645162,317.0
63.384905727,310.0
63.411166292,272.0
63.437426857,313.0
63.463687422,299.0
63.489947987,297.0
63.516208552,303.0
63.542469117,295.0
63.568729682,300.0
63.594990247,272.0
63.621250812,297.0
63.647511377,246.0
63.673771942,271.0
63.700032507,300.0
63.726293072,283.0
63.752553637,300.0
63.778814202,284.0
63.805074767,289.0
63.831335332,310.0
63.857595897,236.0
63.883856462,319.0
63.910117027,301.0
63.936377592,290.0
63.962638157,297.0
63.988898722,300.0
64.015159287,314.0
64.041419852,269.0
64.067680417,287.0
64.093940982,305.0
64.120201547,299.0
64.146462112,300.0
64.172722677,302.0
64.198983242,296.0
64.225243807,272.0
64.251504372,266.0
64.277764937,295.0
64.304025502,323.0
64.330286067,284.0
64.356546632,301.0
64.382807197,271.0
64.409067762,270.0
64.435328327,296.0
64.461588892,292.0
64.487849457,306.0
64.514110023,305.0
64.540370588,279.0
64.566631153,278.0
64.592891718,301.0
64.619152283,290.0
64.645412848,305.0
64.671673413,298.0
64.697933978,300.0
64.724194543,315.0
64.750455108,274.0
64.776715673,326.0
64.802976238,289.0
64.829236803,298.0
64.855497368,295.0
64.881757933,277.0
64.908018498,317.0
64.934279063,307.0
64.960539628,284.0
64.986800193,310.0
65.013060758,265.0
65.039321323,304.0
65.065581888,286.0
65.091842453,271.0
65.118103018,288.0
65.144363583,261.0
65.170624148,286.0
65.196884713,289.0
65.223145278,297.0
65.249405843,293.0
65.275666408,287.0
65.301926973,264.0
65.328187538,282.0
65.354448103,261.0
65.380708668,266.0
65.406969233,259.0
65.433229798,306.0
65.459490363,272.0
65.485750928,260.0
65.512011493,270.0
65.538272058,273.0
65.564532623,284.0
65.590793188,266.0
65.617053753,268.0
65.643314318,270.0
65.669574883,267.0
65.695835448,253.0
65.722096013,251.0
65.748356578,281.0
65.774617143,278.0
65.800877708,278.0
65.827138273,288.0
65.853398838,273.0
65.879659403,268.0
65.905919968,290.0
65.932180533,271.0
65.958441098,291.0
65.984701663,321.0
66.010962228,278.0
66.037222793,254.0
66.063483358,256.0
66.089743923,261.0
66.116004488,276.0
66.142265053,293.0
66.168525618,250.0
66.194786183,261.0
66.221046748,279.0
66.247307313,306.0
66.273567878,294.0
66.299828443,255.0
66.326089008,266.0
66.352349573,280.0
66.378610138,283.0
66.404870703,300.0
66.431131268,272.0
66.457391833,275.0
66.483652398,279.0
66.509912963,273.0
66.536173528,251.0
66.562434093,290.0
66.588694658,260.0
66.614955223,258.0
66.641215788,234.0
66.667476353,265.0
66.693736918,264.0
66.719997483,263.0
66.746258048,305.0
66.772518613,254.0
66.798779178,287.0
66.825039743,278.0
66.851300308,235.0
66.877560873,268.0
66.903821438,258.0
66.930082003,271.0
66.956342568,246.0
66.982603133,268.0
67.008863698,262.0
67.035124263,300.0
67.061384828,280.0
67.087645393,243.0
67.113905958,241.0
67.140166523,247.0
67.166427088,270.0
67.192687653,294.0
67.218948218,256.0
67.245208783,252.0
67.271469348,244.0
67.297729913,262.0
67.323990478,235.0
67.350251043,270.0
67.376511608,294.0
67.402772173,268.0
67.429032738,247.0
67.455293303,262.0
67.481553868,279.0
67.507814433,242.0
67.534074998,274.0
67.560335563,275.0
67.586596128,292.0
67.612856693,296.0
67.639117258,264.0
67.665377823,308.0
67.691638388,271.0
67.717898953,281.0
67.744159518,205.0
67.770420083,299.0
67.796680648,284.0
67.822941213,240.0
67.849201778,281.0
67.875462343,276.0
67.901722909,255.0
67.927983474,268.0
67.954244039,266.0
67.980504604,259.0
68.006765169,254.0
68.033025734,280.0
68.059286299,260.0
68.085546864,279.0
68.111807429,253.0
68.138067994,289.0
68.164328559,242.0
68.190589124,256.0
68.216849689,265.0
68.243110254,241.0
68.269370819,299.0
68.295631384,264.0
68.321891949,264.0
68.348152514,285.0
68.374413079,230.0
68.400673644,248.0
68.426934209,212.0
68.453194774,244.0
68.479455339,292.0
68.505715904,262.0
68.531976469,254.0
68.558237034,282.0
68.584497599,234.0
68.610758164,257.0
68.637018729,242.0
68.663279294,248.0
68.689539859,269.0
68.715800424,288.0
68.742060989,275.0
68.768321554,297.0
68.794582119,250.0
68.820842684,252.0
68.847103249,297.0
68.873363814,279.0
68.899624379,271.0
68.925884944,254.0
68.952145509,264.0
68.978406074,266.0
69.004666639,268.0
69.030927204,262.0
69.057187769,240.0
69.083448334,249.0
69.109708899,259.0
69.135969464,252.0
69.162230029,291.0
69.188490594,249.0
69.214751159,249.0
69.241011724,272.0
69.267272289,245.0
69.293532854,267.0
69.319793419,262.0
69.346053984,256.0
69.372314549,273.0
69.398575114,263.0
69.424835679,256.0
69.451096244,283.0
69.477356809,264.0
69.503617374,243.0
69.529877939,268.0
69.556138504,248.0
69.582399069,245.0
69.608659634,255.0
69.634920199,270.0
69.661180764,259.0
69.687441329,254.0
69.713701894,257.0
69.739962459,256.0
69.766223024,247.0
69.792483589,251.0
69.818744154,275.0
69.845004719,276.0
69.871265284,250.0
69.897525849,251.0
69.923786414,258.0
69.950046979,250.0
69.976307544,224.0
70.002568109,256.0
70.028828674,218.0
70.055089239,254.0
70.081349804,230.0
70.107610369,246.0
70.133870934,233.0
70.160131499,232.0
70.186392064,266.0
70.212652629,240.0
70.238913194,238.0
70.265173759,262.0
70.291434324,267.0
70.317694889,268.0
70.343955454,269.0
70.370216019,260.0
70.396476584,257.0
70.422737149,274.0
70.448997714,253.0
70.475258279,241.0
70.501518844,225.0
70.527779409,257.0
70.554039974,279.0
70.580300539,255.0
70.606561104,247.0
70.632821669,283.0
70.659082234,260.0
70.685342799,259.0
70.711603364,265.0
70.737863929,273.0
70.764124494,249.0
70.790385059,296.0
70.816645624,270.0
70.842906189,262.0
70.869166754,239.0
70.895427319,283.0
70.921687884,285.0
70.947948449,233.0
70.974209014,256.0
71.000469579,223.0
71.026730144,260.0
71.052990709,247.0
71.079251274,254.0
71.105511839,258.0
71.131772404,236.0
71.158032969,264.0
71.184293534,229.0
71.210554099,232.0
71.236814664,233.0
71.263075229,277.0
71.289335794,253.0
71.315596360,263.0
71.341856925,235.0
71.368117490,234.0
71.394378055,266.0
71.420638620,255.0
71.446899185,251.0
71.473159750,277.0
71.499420315,229.0
71.525680880,237.0
71.551941445,272.0
71.578202010,272.0
71.604462575,238.0
71.630723140,262.0
71.656983705,235.0
71.683244270,263.0
71.709504835,265.0
71.735765400,253.0
71.762025965,251.0
71.788286530,250.0
71.814547095,232.0
71.840807660,245.0
71.867068225,236.0
71.893328790,305.0
71.919589355,277.0
71.945849920,272.0
71.972110485,232.0
71.998371050,274.0
72.024631615,278.0
72.050892180,249.0
72.077152745,276.0
72.103413310,236.0
72.129673875,285.0
72.155934440,259.0
72.182195005,245.0
72.208455570,270.0
72.234716135,311.0
72.260976700,248.0
72.287237265,287.0
72.313497830,265.0
72.339758395,287.0
72.366018960,293.0
72.392279525,292.0
72.418540090,249.0
72.444800655,308.0
72.471061220,274.0
72.497321785,306.0
72.523582350,273.0
72.549842915,274.0
72.576103480,300.0
72.602364045,269.0
72.628624610,299.0
72.654885175,269.0
72.681145740,272.0
72.707406305,257.0
72.733666870,272.0
72.759927435,286.0
72.786188000,293.0
72.812448565,316.0
72.838709130,277.0
72.864969695,245.0
72.891230260,293.0
72.917490825,294.0
72.943751390,278.0
72.970011955,312.0
72.996272520,288.0
73.022533085,290.0
73.048793650,321.0
73.075054215,309.0
73.101314780,304.0
73.127575345,281.0
73.153835910,324.0
73.180096475,300.0
73.206357040,294.0
73.232617605,349.0
73.258878170,310.0
73.285138735,291.0
73.311399300,312.0
73.337659865,323.0
73.363920430,314.0
73.390180995,322.0
73.416441560,301.0
73.442702125,320.0
73.468962690,314.0
73.495223255,293.0
73.521483820,341.0
73.547744385,277.0
73.574004950,296.0
73.600265515,316.0
73.626526080,325.0
73.652786645,309.0
73.679047210,317.0
73.705307775,298.0
73.731568340,284.0
73.757828905,273.0
73.784089470,305.0
73.810350035,307.0
73.836610600,324.0
73.862871165,305.0
73.889131730,288.0
73.915392295,310.0
73.941652860,292.0
73.967913425,269.0
73.994173990,296.0
74.020434555,265.0
74.046695120,298.0
74.072955685,283.0
74.099216250,263.0
74.125476815,297.0
74.151737380,298.0
74.177997945,321.0
74.204258510,278.0
74.230519075,272.0
74.256779640,266.0
74.283040205,266.0
74.309300770,291.0
74.335561335,280.0
74.361821900,286.0
74.388082465,282.0
74.414343030,254.0
74.440603595,264.0
74.466864160,276.0
74.493124725,272.0
74.519385290,262.0
74.545645855,257.0
74.571906420,292.0
74.598166985,245.0
74.624427550,298.0
74.650688115,250.0
74.676948680,292.0
74.703209246,267.0
74.729469811,257.0
74.755730376,255.0
74.781990941,235.0
74.808251506,302.0
74.834512071,292.0
74.860772636,258.0
74.887033201,263.0
74.913293766,262.0
74.939554331,256.0
74.965814896,289.0
74.992075461,259.0
75.018336026,238.0
75.044596591,275.0
75.070857156,284.0
75.097117721,255.0
75.123378286,271.0
75.149638851,273.0
75.175899416,266.0
75.202159981,259.0
75.228420546,242.0
75.254681111,249.0
75.280941676,256.0
75.307202241,259.0
75.333462806,278.0
75.359723371,234.0
75.385983936,266.0
75.412244501,245.0
75.438505066,236.0
75.464765631,226.0
75.491026196,246.0
75.517286761,244.0
75.543547326,232.0
75.569807891,261.0
75.596068456,238.0
75.622329021,246.0
75.648589586,261.0
75.674850151,256.0
75.701110716,244.0
75.727371281,228.0
75.753631846,232.0
75.779892411,262.0
75.806152976,265.0
75.832413541,212.0
75.858674106,268.0
75.884934671,238.0
75.911195236,241.0
75.937455801,221.0
75.963716366,251.0
75.989976931,269.0
76.016237496,224.0
76.042498061,256.0
76.068758626,261.0
76.095019191,220.0
76.121279756,227.0
76.147540321,256.0
76.173800886,251.0
76.200061451,226.0
76.226322016,246.0
76.252582581,245.0
76.278843146,238.0
76.305103711,239.0
76.331364276,226.0
76.357624841,213.0
76.383885406,219.0
76.410145971,220.0
76.436406536,268.0
76.462667101,212.0
76.488927666,242.0
76.515188231,250.0
76.541448796,244.0
76.567709361,253.0
76.593969926,257.0
76.620230491,247.0
76.646491056,226.0
76.672751621,210.0
76.699012186,258.0
76.725272751,238.0
76.751533316,245.0
76.777793881,231.0
76.804054446,209.0
76.830315011,252.0
76.856575576,249.0
76.882836141,261.0
76.909096706,233.0
76.935357271,248.0
76.961617836,218.0
76.987878401,225.0
77.014138966,241.0
77.040399531,233.0
77.066660096,233.0
77.092920661,278.0
77.119181226,227.0
77.145441791,239.0
77.171702356,243.0
77.197962921,220.0
77.224223486,224.0
77.250484051,244.0
77.276744616,257.0
77.303005181,254.0
77.329265746,247.0
77.355526311,250.0
77.381786876,238.0
77.408047441,228.0
77.434308006,238.0
77.460568571,212.0
77.486829136,259.0
77.513089701,232.0
77.539350266,224.0
77.565610831,247.0
77.591871396,235.0
77.618131961,240.0
77.644392526,241.0
77.670653091,278.0
77.696913656,247.0
77.723174221,244.0
77.749434786,241.0
77.775695351,229.0
77.801955916,231.0
77.828216481,226.0
77.854477046,220.0
77.880737611,233.0
77.906998176,246.0
77.933258741,236.0
77.959519306,242.0
77.985779871,243.0
78.012040436,215.0
78.038301001,253.0
78.064561566,236.0
78.090822131,212.0
78.117082697,232.0
78.143343262,238.0
78.169603827,221.0
78.195864392,232.0
78.222124957,238.0
78.248385522,237.0
78.274646087,237.0
78.300906652,255.0
78.327167217,259.0
78.353427782,219.0
78.379688347,199.0
78.405948912,238.0
78.432209477,254.0
78.458470042,219.0
78.484730607,199.0
78.510991172,208.0
78.537251737,223.0
78.563512302,253.0
78.589772867,228.0
78.616033432,249.0
78.642293997,235.0
78.668554562,221.0
78.694815127,238.0
78.721075692,218.0
78.747336257,239.0
78.773596822,221.0
78.799857387,246.0
78.826117952,243.0
78.852378517,219.0
78.878639082,244.0
78.904899647,229.0
78.931160212,242.0
78.957420777,241.0
78.983681342,236.0
79.009941907,216.0
79.036202472,254.0
79.062463037,234.0
79.088723602,237.0
79.114984167,206.0
79.141244732,225.0
79.167505297,234.0
79.193765862,226.0
79.220026427,196.0
79.246286992,256.0
79.272547557,247.0
79.298808122,201.0
79.325068687,245.0
79.351329252,229.0
79.377589817,243.0
79.403850382,220.0
79.430110947,194.0
79.456371512,219.0
79.482632077,255.0
79.508892642,220.0
79.535153207,253.0
79.561413772,255.0
79.587674337,241.0
79.613934902,247.0
79.640195467,234.0
79.666456032,206.0
79.692716597,245.0
79.718977162,216.0
79.745237727,210.0
79.771498292,245.0
79.797758857,219.0
79.824019422,223.0
79.850279987,227.0
79.876540552,256.0
79.902801117,230.0
79.929061682,236.0
79.955322247,219.0
79.981582812,214.0
80.007843377,262.0
80.034103942,232.0
80.060364507,217.0
80.086625072,229.0
80.112885637,219.0
80.139146202,219.0
80.165406767,227.0
80.191667332,247.0
80.217927897,230.0
80.244188462,248.0
80.270449027,228.0
80.296709592,233.0
80.322970157,259.0
80.349230722,237.0
80.375491287,223.0
80.401751852,233.0
80.428012417,234.0
80.454272982,222.0
80.480533547,217.0
80.506794112,232.0
80.533054677,253.0
80.559315242,225.0
80.585575807,211.0
80.611836372,209.0
80.638096937,262.0
80.664357502,228.0
80.690618067,244.0
80.716878632,226.0
80.743139197,207.0
80.769399762,231.0
80.795660327,241.0
80.821920892,232.0
80.848181457,195.0
80.874442022,198.0
80.900702587,214.0
80.926963152,241.0
80.953223717,229.0
80.979484282,237.0
81.005744847,228.0
81.032005412,247.0
81.058265977,220.0
81.084526542,239.0
81.110787107,208.0
81.137047672,221.0
81.163308237,228.0
81.189568802,203.0
81.215829367,212.0
81.242089932,245.0
81.268350497,218.0
81.294611062,183.0
81.320871627,235.0
81.347132192,208.0
81.373392757,216.0
81.399653322,220.0
81.425913887,209.0
81.452174452,226.0
81.478435017,217.0
81.504695583,249.0
81.530956148,229.0
81.557216713,211.0
81.583477278,245.0
81.609737843,223.0
81.635998408,245.0
81.662258973,219.0
81.688519538,198.0
81.714780103,207.0
81.741040668,236.0
81.767301233,228.0
81.793561798,235.0
81.819822363,229.0
81.846082928,231.0
81.872343493,235.0
81.898604058,215.0
81.924864623,217.0
81.951125188,221.0
81.977385753,235.0
82.003646318,234.0
82.029906883,211.0
82.056167448,222.0
82.082428013,196.0
82.108688578,223.0
82.134949143,231.0
82.161209708,214.0
82.187470273,220.0
82.213730838,241.0
82.239991403,205.0
82.266251968,223.0
82.292512533,224.0
82.318773098,233.0
82.345033663,210.0
82.371294228,207.0
82.397554793,229.0
82.423815358,240.0
82.450075923,220.0
82.476336488,214.0
82.502597053,209.0
82.528857618,231.0
82.555118183,232.0
82.581378748,185.0
82.607639313,197.0
82.633899878,242.0
82.660160443,224.0
82.686421008,206.0
82.712681573,195.0
82.738942138,236.0
82.765202703,220.0
82.791463268,204.0
82.817723833,207.0
82.843984398,218.0
82.870244963,239.0
82.896505528,206.0
82.922766093,204.0
82.949026658,214.0
82.975287223,207.0
83.001547788,190.0
83.027808353,220.0
83.054068918,226.0
83.080329483,225.0
83.106590048,239.0
83.132850613,228.0
83.159111178,218.0
83.185371743,226.0
83.211632308,216.0
83.237892873,234.0
83.264153438,221.0
83.290414003,202.0
83.316674568,241.0
83.342935133,196.0
83.369195698,226.0
83.395456263,240.0
83.421716828,225.0
83.447977393,204.0
83.474237958,200.0
83.500498523,193.0
83.526759088,231.0
83.553019653,198.0
83.579280218,250.0
83.605540783,227.0
83.631801348,233.0
83.658061913,217.0
83.684322478,217.0
83.710583043,223.0
83.736843608,188.0
83.763104173,244.0
83.789364738,229.0
83.815625303,194.0
83.841885868,216.0
83.868146433,222.0
83.894406998,184.0
83.920667563,180.0
83.946928128,204.0
83.973188693,205.0
83.999449258,216.0
84.025709823,211.0
84.051970388,179.0
84.078230953,215.0
84.104491518,216.0
84.130752083,202.0
84.157012648,214.0
84.183273213,193.0
84.209533778,200.0
84.235794343,197.0
84.262054908,227.0
84.288315473,228.0
84.314576038,229.0
84.340836603,185.0
84.367097168,196.0
84.393357733,176.0
84.419618298,198.0
84.445878863,235.0
84.472139428,206.0
84.498399993,241.0
84.524660558,204.0
84.550921123,210.0
84.577181688,220.0
84.603442253,209.0
84.629702818,209.0
84.655963383,200.0
84.682223948,176.0
84.708484513,207.0
84.734745078,210.0
84.761005643,213.0
84.787266208,201.0
84.813526773,200.0
84.839787338,215.0
84.866047903,216.0
84.892308469,207.0
84.918569034,204.0
84.944829599,235.0
84.971090164,222.0
84.997350729,237.0
85.023611294,204.0
85.049871859,187.0
85.076132424,224.0
85.102392989,204.0
85.128653554,192.0
85.154914119,168.0
85.181174684,216.0
85.207435249,206.0
85.233695814,206.0
85.259956379,195.0
85.286216944,206.0
85.312477509,208.0
85.338738074,198.0
85.364998639,199.0
85.391259204,215.0
85.417519769,192.0
85.443780334,190.0
85.470040899,217.0
85.496301464,177.0
85.522562029,213.0
85.548822594,206.0
85.575083159,219.0
85.601343724,202.0
85.627604289,209.0
85.653864854,214.0
85.680125419,231.0
85.706385984,211.0
85.732646549,211.0
85.758907114,227.0
85.785167679,197.0
85.811428244,200.0
85.837688809,203.0
85.863949374,178.0
85.890209939,191.0
85.916470504,192.0
85.942731069,215.0
85.968991634,208.0
85.995252199,186.0
86.021512764,188.0
86.047773329,222.0
86.074033894,214.0
86.100294459,211.0
86.126555024,218.0
86.152815589,183.0
86.179076154,177.0
86.205336719,179.0
86.231597284,196.0
86.257857849,210.0
86.284118414,192.0
86.310378979,191.0
86.336639544,202.0
86.362900109,236.0
86.389160674,199.0
86.415421239,212.0
86.441681804,192.0
86.467942369,211.0
86.494202934,191.0
86.520463499,216.0
86.546724064,187.0
86.572984629,216.0
86.599245194,241.0
86.625505759,208.0
86.651766324,202.0
86.678026889,200.0
86.704287454,227.0
86.730548019,210.0
86.756808584,189.0
86.783069149,197.0
86.809329714,193.0
86.835590279,210.0
86.861850844,219.0
86.888111409,222.0
86.914371974,205.0
86.940632539,219.0
86.966893104,211.0
86.993153669,191.0
87.019414234,189.0
87.045674799,212.0
87.071935364,216.0
87.098195929,199.0
87.124456494,223.0
87.150717059,207.0
87.176977624,208.0
87.203238189,218.0
87.229498754,228.0
87.255759319,205.0
87.282019884,211.0
87.308280449,201.0
87.334541014,217.0
87.360801579,215.0
87.387062144,191.0
87.413322709,191.0
87.439583274,223.0
87.465843839,204.0
87.492104404,195.0
87.518364969,231.0
87.544625534,205.0
87.570886099,194.0
87.597146664,201.0
87.623407229,226.0
87.649667794,222.0
87.675928359,194.0
87.702188924,223.0
87.728449489,216.0
87.754710054,206.0
87.780970619,228.0
87.807231184,185.0
87.833491749,207.0
87.859752314,207.0
87.886012879,200.0
87.912273444,196.0
87.938534009,198.0
87.964794574,214.0
87.991055139,188.0
88.017315704,180.0
88.043576269,186.0
88.069836834,219.0
88.096097399,196.0
88.122357964,225.0
88.148618529,183.0
88.174879094,200.0
88.201139659,214.0
88.227400224,203.0
88.253660789,193.0
88.279921354,188.0
88.306181920,177.0
88.332442485,207.0
88.358703050,222.0
88.384963615,205.0
88.411224180,210.0
88.437484745,226.0
88.463745310,211.0
88.490005875,176.0
88.516266440,229.0
88.542527005,241.0
88.568787570,221.0
88.595048135,223.0
88.621308700,218.0
88.647569265,200.0
88.673829830,210.0
88.700090395,202.0
88.726350960,203.0
88.752611525,216.0
88.778872090,200.0
88.805132655,203.0
88.831393220,229.0
88.857653785,198.0
88.883914350,189.0
88.910174915,215.0
88.936435480,203.0
88.962696045,228.0
88.988956610,194.0
89.015217175,193.0
89.041477740,168.0
89.067738305,213.0
89.093998870,208.0
89.120259435,212.0
89.146520000,223.0
89.172780565,211.0
89.199041130,200.0
89.225301695,188.0
89.251562260,194.0
89.277822825,241.0
89.304083390,204.0
89.330343955,216.0
89.356604520,207.0
89.382865085,244.0
89.409125650,196.0
89.435386215,197.0
89.461646780,193.0
89.487907345,212.0
89.514167910,213.0
89.540428475,195.0
89.566689040,194.0
89.592949605,198.0
89.619210170,209.0
89.645470735,213.0
89.671731300,209.0
89.697991865,185.0
89.724252430,217.0
89.750512995,194.0
89.776773560,217.0
89.803034125,185.0
89.829294690,190.0
89.855555255,186.0
89.881815820,210.0
89.908076385,226.0
89.934336950,228.0
89.960597515,196.0
89.986858080,199.0
