[Measurement conditions]
Sample identification,
Comment - 1,"Configuration=Stage for flat samples/holders, Owner=User-1, Creation date=3/27/2015 11:56:23 AM"
Comment - 2,"Goniometer=Theta/Theta; Minimum step size 2Theta:0.0001; Minimum step size Omega:0.0001"
Comment - 3,"Sample stage=Stage for flat samples/holders"
Comment - 4,"Diffractometer system=EMPYREAN"
Comment - 5,"Measurement program=C:\PANalytical\Data Collector\Programs\Powder - Copy.xrdmp, Identifier={BEEA10DD-8FD6-4721-8940-4FBC5A4262A1}"
Comment - 6,"Fine Calibration Offset for 2Theta = -0.0130 deg"
Comment - 7,"Fine Calibration Offset for Omega = -0.0070 deg"
Anode material,Cu
K-Alpha1 wavelength,1.5405980
K-Alpha2 wavelength,1.5444260
Ratio K-Alpha2/K-Alpha1,0.500
Divergence slit,Fixed,0.38mm
Monochromator used,NO
Generator voltage, 40
Tube current, 35
File date and time,24/Jul/2017 17:05
Unit cell,
h k l, 0 0 0
Scan axis,Gonio
Scan range,5.020799997,89.999988363
Scan step size,0.0262606
No. of points, 3236
Scan type,CONTINUOUS
Time per step,18.615
[Scan points]
Angle,Intensity
5.033930280,1447.0
5.060190845,1359.0
5.086451410,1343.0
5.112711975,1409.0
5.138972540,1466.0
5.165233105,1426.0
5.191493670,1387.0
5.217754235,1409.0
5.244014800,1458.0
5.270275365,1389.0
5.296535930,1435.0
5.322796495,1372.0
5.349057060,1412.0
5.375317625,1356.0
5.401578190,1450.0
5.427838755,1387.0
5.454099320,1374.0
5.480359885,1409.0
5.506620450,1414.0
5.532881015,1415.0
5.559141580,1504.0
5.585402145,1409.0
5.611662710,1402.0
5.637923275,1444.0
5.664183840,1393.0
5.690444405,1391.0
5.716704970,1416.0
5.742965535,1395.0
5.769226100,1460.0
5.795486665,1410.0
5.821747230,1421.0
5.848007795,1423.0
5.874268360,1457.0
5.900528925,1440.0
5.926789490,1413.0
5.953050055,1450.0
5.979310620,1439.0
6.005571185,1398.0
6.031831750,1406.0
6.058092315,1359.0
6.084352880,1376.0
6.110613445,1370.0
6.136874010,1384.0
6.163134575,1400.0
6.189395140,1322.0
6.215655705,1376.0
6.241916270,1342.0
6.268176835,1471.0
6.294437400,1419.0
6.320697965,1298.0
6.346958530,1365.0
6.373219095,1442.0
6.399479660,1435.0
6.425740225,1476.0
6.452000790,1454.0
6.478261355,1417.0
6.504521920,1473.0
6.530782485,1375.0
6.557043050,1414.0
6.583303615,1392.0
6.609564180,1441.0
6.635824745,1456.0
6.662085310,1385.0
6.688345875,1419.0
6.714606440,1374.0
6.740867006,1446.0
6.767127571,1385.0
6.793388136,1429.0
6.819648701,1442.0
6.845909266,1428.0
6.872169831,1438.0
6.898430396,1413.0
6.924690961,1393.0
6.950951526,1432.0
6.977212091,1376.0
7.003472656,1388.0
7.029733221,1497.0
7.055993786,1423.0
7.082254351,1429.0
7.108514916,1354.0
7.134775481,1491.0
7.161036046,1406.0
7.187296611,1423.0
7.213557176,1477.0
7.239817741,1437.0
7.266078306,1392.0
7.292338871,1394.0
7.318599436,1443.0
7.344860001,1412.0
7.371120566,1458.0
7.397381131,1478.0
7.423641696,1528.0
7.449902261,1373.0
7.476162826,1431.0
7.502423391,1464.0
7.528683956,1389.0
7.554944521,1448.0
7.581205086,1439.0
7.607465651,1484.0
7.633726216,1466.0
7.659986781,1395.0
7.686247346,1420.0
7.712507911,1408.0
7.738768476,1502.0
7.765029041,1428.0
7.791289606,1457.0
7.817550171,1427.0
7.843810736,1432.0
7.870071301,1408.0
7.896331866,1504.0
7.922592431,1502.0
7.948852996,1440.0
7.975113561,1476.0
8.001374126,1504.0
8.027634691,1503.0
8.053895256,1538.0
8.080155821,1588.0
8.106416386,1502.0
8.132676951,1520.0
8.158937516,1536.0
8.185198081,1589.0
8.211458646,1586.0
8.237719211,1486.0
8.263979776,1577.0
8.290240341,1557.0
8.316500906,1512.0
8.342761471,1497.0
8.369022036,1561.0
8.395282601,1575.0
8.421543166,1560.0
8.447803731,1596.0
8.474064296,1506.0
8.500324861,1565.0
8.526585426,1564.0
8.552845991,1601.0
8.579106556,1628.0
8.605367121,1638.0
8.631627686,1648.0
8.657888251,1605.0
8.684148816,1610.0
8.710409381,1690.0
8.736669946,1653.0
8.762930511,1629.0
8.789191076,1675.0
8.815451641,1695.0
8.841712206,1715.0
8.867972771,1690.0
8.894233336,1688.0
8.920493901,1674.0
8.946754466,1633.0
8.973015031,1621.0
8.999275596,1685.0
9.025536161,1672.0
9.051796726,1694.0
9.078057291,1746.0
9.104317856,1699.0
9.130578421,1687.0
9.156838986,1730.0
9.183099551,1741.0
9.209360116,1671.0
9.235620681,1697.0
9.261881246,1761.0
9.288141811,1746.0
9.314402376,1748.0
9.340662941,1697.0
9.366923506,1694.0
9.393184071,1701.0
9.419444636,1690.0
9.445705201,1593.0
9.471965766,1634.0
9.498226331,1616.0
9.524486896,1650.0
9.550747461,1643.0
9.577008026,1611.0
9.603268591,1610.0
9.629529156,1608.0
9.655789721,1565.0
9.682050286,1570.0
9.708310851,1562.0
9.734571416,1465.0
9.760831981,1513.0
9.787092546,1523.0
9.813353111,1431.0
9.839613676,1431.0
9.865874241,1445.0
9.892134806,1478.0
9.918395371,1436.0
9.944655936,1341.0
9.970916501,1337.0
9.997177066,1372.0
10.023437631,1344.0
10.049698196,1370.0
10.075958761,1313.0
10.102219326,1349.0
10.128479891,1304.0
10.154740457,1283.0
10.181001022,1248.0
10.207261587,1313.0
10.233522152,1240.0
10.259782717,1267.0
10.286043282,1307.0
10.312303847,1296.0
10.338564412,1309.0
10.364824977,1251.0
10.391085542,1249.0
10.417346107,1251.0
10.443606672,1270.0
10.469867237,1178.0
10.496127802,1240.0
10.522388367,1247.0
10.548648932,1220.0
10.574909497,1233.0
10.601170062,1197.0
10.627430627,1172.0
10.653691192,1155.0
10.679951757,1198.0
10.706212322,1171.0
10.732472887,1113.0
10.758733452,1105.0
10.784994017,1130.0
10.811254582,1065.0
10.837515147,1156.0
10.863775712,1188.0
10.890036277,1150.0
10.916296842,1108.0
10.942557407,1173.0
10.968817972,1074.0
10.995078537,1124.0
11.021339102,1112.0
11.047599667,1096.0
11.073860232,1120.0
11.100120797,1081.0
11.126381362,1167.0
11.152641927,1065.0
11.178902492,1139.0
11.205163057,1113.0
11.231423622,1045.0
11.257684187,1061.0
11.283944752,1058.0
11.310205317,1039.0
11.336465882,1088.0
11.362726447,1016.0
11.388987012,1040.0
11.415247577,1049.0
11.441508142,1027.0
11.467768707,1042.0
11.494029272,1066.0
11.520289837,1048.0
11.546550402,1056.0
11.572810967,1049.0
11.599071532,954.0
11.625332097,1010.0
11.651592662,1017.0
11.677853227,990.0
11.704113792,1041.0
11.730374357,1039.0
11.756634922,1053.0
11.782895487,972.0
11.809156052,1068.0
11.835416617,1018.0
11.861677182,971.0
11.887937747,990.0
11.914198312,978.0
11.940458877,995.0
11.966719442,1042.0
11.992980007,949.0
12.019240572,1010.0
12.045501137,993.0
12.071761702,1036.0
12.098022267,1048.0
12.124282832,1006.0
12.150543397,940.0
12.176803962,938.0
12.203064527,973.0
12.229325092,997.0
12.255585657,1002.0
12.281846222,1015.0
12.308106787,901.0
12.334367352,985.0
12.360627917,946.0
12.386888482,943.0
12.413149047,998.0
12.439409612,870.0
12.465670177,981.0
12.491930742,989.0
12.518191307,938.0
12.544451872,936.0
12.570712437,932.0
12.596973002,959.0
12.623233567,908.0
12.649494132,934.0
12.675754697,860.0
12.702015262,958.0
12.728275827,926.0
12.754536392,891.0
12.780796957,955.0
12.807057522,935.0
12.833318087,945.0
12.859578652,914.0
12.885839217,914.0
12.912099782,899.0
12.938360347,913.0
12.964620912,955.0
12.990881477,984.0
13.017142042,934.0
13.043402607,903.0
13.069663172,882.0
13.095923737,897.0
13.122184302,945.0
13.148444867,919.0
13.174705432,886.0
13.200965997,946.0
13.227226562,939.0
13.253487127,859.0
13.279747692,869.0
13.306008257,900.0
13.332268822,935.0
13.358529387,901.0
13.384789952,873.0
13.411050517,867.0
13.437311082,873.0
13.463571647,887.0
13.489832212,875.0
13.516092777,913.0
13.542353343,905.0
13.568613908,892.0
13.594874473,868.0
13.621135038,855.0
13.647395603,885.0
13.673656168,863.0
13.699916733,929.0
13.726177298,883.0
13.752437863,846.0
13.778698428,874.0
13.804958993,859.0
13.831219558,898.0
13.857480123,874.0
13.883740688,876.0
13.910001253,913.0
13.936261818,910.0
13.962522383,875.0
13.988782948,849.0
14.015043513,847.0
14.041304078,886.0
14.067564643,862.0
14.093825208,880.0
14.120085773,817.0
14.146346338,856.0
14.172606903,822.0
14.198867468,812.0
14.225128033,831.0
14.251388598,839.0
14.277649163,852.0
14.303909728,890.0
14.330170293,877.0
14.356430858,873.0
14.382691423,866.0
14.408951988,795.0
14.435212553,848.0
14.461473118,805.0
14.487733683,774.0
14.513994248,822.0
14.540254813,865.0
14.566515378,826.0
14.592775943,849.0
14.619036508,840.0
14.645297073,810.0
14.671557638,819.0
14.697818203,849.0
14.724078768,821.0
14.750339333,832.0
14.776599898,804.0
14.802860463,812.0
14.829121028,846.0
14.855381593,870.0
14.881642158,844.0
14.907902723,832.0
14.934163288,868.0
14.960423853,842.0
14.986684418,873.0
15.012944983,833.0
15.039205548,833.0
15.065466113,866.0
15.091726678,849.0
15.117987243,867.0
15.144247808,869.0
15.170508373,838.0
15.196768938,815.0
15.223029503,887.0
15.249290068,844.0
15.275550633,802.0
15.301811198,831.0
15.328071763,864.0
15.354332328,806.0
15.380592893,836.0
15.406853458,861.0
15.433114023,858.0
15.459374588,833.0
15.485635153,838.0
15.511895718,783.0
15.538156283,858.0
15.564416848,833.0
15.590677413,824.0
15.616937978,886.0
15.643198543,822.0
15.669459108,786.0
15.695719673,813.0
15.721980238,816.0
15.748240803,878.0
15.774501368,781.0
15.800761933,832.0
15.827022498,849.0
15.853283063,910.0
15.879543628,795.0
15.905804193,828.0
15.932064758,840.0
15.958325323,850.0
15.984585888,864.0
16.010846453,831.0
16.037107018,850.0
16.063367583,749.0
16.089628148,813.0
16.115888713,846.0
16.142149278,807.0
16.168409843,806.0
16.194670408,826.0
16.220930973,832.0
16.247191538,811.0
16.273452103,828.0
16.299712668,813.0
16.325973233,782.0
16.352233798,870.0
16.378494363,778.0
16.404754928,873.0
16.431015493,824.0
16.457276058,765.0
16.483536623,838.0
16.509797188,825.0
16.536057753,835.0
16.562318318,784.0
16.588578883,807.0
16.614839448,774.0
16.641100013,839.0
16.667360578,795.0
16.693621143,818.0
16.719881708,816.0
16.746142273,800.0
16.772402838,775.0
16.798663403,768.0
16.824923968,803.0
16.851184533,824.0
16.877445098,797.0
16.903705663,847.0
16.929966229,838.0
16.956226794,816.0
16.982487359,767.0
17.008747924,806.0
17.035008489,824.0
17.061269054,808.0
17.087529619,826.0
17.113790184,804.0
17.140050749,814.0
17.166311314,810.0
17.192571879,807.0
17.218832444,800.0
17.245093009,837.0
17.271353574,799.0
17.297614139,832.0
17.323874704,775.0
17.350135269,770.0
17.376395834,832.0
17.402656399,797.0
17.428916964,802.0
17.455177529,860.0
17.481438094,804.0
17.507698659,773.0
17.533959224,761.0
17.560219789,802.0
17.586480354,842.0
17.612740919,820.0
17.639001484,872.0
17.665262049,804.0
17.691522614,791.0
17.717783179,784.0
17.744043744,852.0
17.770304309,847.0
17.796564874,802.0
17.822825439,812.0
17.849086004,794.0
17.875346569,807.0
17.901607134,805.0
17.927867699,821.0
17.954128264,825.0
17.980388829,861.0
18.006649394,782.0
18.032909959,859.0
18.059170524,781.0
18.085431089,774.0
18.111691654,790.0
18.137952219,789.0
18.164212784,786.0
18.190473349,860.0
18.216733914,873.0
18.242994479,837.0
18.269255044,839.0
18.295515609,790.0
18.321776174,844.0
18.348036739,790.0
18.374297304,815.0
18.400557869,835.0
18.426818434,738.0
18.453078999,821.0
18.479339564,790.0
18.505600129,850.0
18.531860694,775.0
18.558121259,831.0
18.584381824,859.0
18.610642389,798.0
18.636902954,796.0
18.663163519,841.0
18.689424084,793.0
18.715684649,831.0
18.741945214,859.0
18.768205779,834.0
18.794466344,847.0
18.820726909,918.0
18.846987474,797.0
18.873248039,862.0
18.899508604,872.0
18.925769169,860.0
18.952029734,876.0
18.978290299,766.0
19.004550864,751.0
19.030811429,781.0
19.057071994,819.0
19.083332559,877.0
19.109593124,790.0
19.135853689,803.0
19.162114254,808.0
19.188374819,886.0
19.214635384,799.0
19.240895949,831.0
19.267156514,876.0
19.293417079,750.0
19.319677644,835.0
19.345938209,876.0
19.372198774,802.0
19.398459339,869.0
19.424719904,798.0
19.450980469,789.0
19.477241034,808.0
19.503501599,798.0
19.529762164,766.0
19.556022729,844.0
19.582283294,809.0
19.608543859,883.0
19.634804424,787.0
19.661064989,824.0
19.687325554,794.0
19.713586119,847.0
19.739846684,829.0
19.766107249,811.0
19.792367814,862.0
19.818628379,847.0
19.844888944,832.0
19.871149509,818.0
19.897410074,889.0
19.923670639,855.0
19.949931204,866.0
19.976191769,858.0
20.002452334,831.0
20.028712899,818.0
20.054973464,816.0
20.081234029,830.0
20.107494594,865.0
20.133755159,826.0
20.160015724,842.0
20.186276289,802.0
20.212536854,849.0
20.238797419,894.0
20.265057984,847.0
20.291318549,892.0
20.317579114,810.0
20.343839680,874.0
20.370100245,854.0
20.396360810,875.0
20.422621375,841.0
20.448881940,795.0
20.475142505,817.0
20.501403070,820.0
20.527663635,879.0
20.553924200,854.0
20.580184765,851.0
20.606445330,813.0
20.632705895,861.0
20.658966460,802.0
20.685227025,889.0
20.711487590,829.0
20.737748155,872.0
20.764008720,845.0
20.790269285,865.0
20.816529850,861.0
20.842790415,890.0
20.869050980,875.0
20.895311545,842.0
20.921572110,832.0
20.947832675,923.0
20.974093240,898.0
21.000353805,862.0
21.026614370,900.0
21.052874935,833.0
21.079135500,839.0
21.105396065,842.0
21.131656630,881.0
21.157917195,886.0
21.184177760,917.0
21.210438325,854.0
21.236698890,800.0
21.262959455,939.0
21.289220020,884.0
21.315480585,824.0
21.341741150,845.0
21.368001715,841.0
21.394262280,851.0
21.420522845,895.0
21.446783410,891.0
21.473043975,900.0
21.499304540,845.0
21.525565105,866.0
21.551825670,902.0
21.578086235,838.0
21.604346800,875.0
21.630607365,846.0
21.656867930,940.0
21.683128495,835.0
21.709389060,906.0
21.735649625,878.0
21.761910190,847.0
21.788170755,880.0
21.814431320,870.0
21.840691885,877.0
21.866952450,865.0
21.893213015,867.0
21.919473580,861.0
21.945734145,887.0
21.971994710,856.0
21.998255275,870.0
22.024515840,956.0
22.050776405,870.0
22.077036970,871.0
22.103297535,892.0
22.129558100,881.0
22.155818665,921.0
22.182079230,903.0
22.208339795,937.0
22.234600360,943.0
22.260860925,880.0
22.287121490,881.0
22.313382055,886.0
22.339642620,888.0
22.365903185,900.0
22.392163750,898.0
22.418424315,871.0
22.444684880,861.0
22.470945445,850.0
22.497206010,939.0
22.523466575,862.0
22.549727140,913.0
22.575987705,947.0
22.602248270,907.0
22.628508835,951.0
22.654769400,892.0
22.681029965,900.0
22.707290530,880.0
22.733551095,923.0
22.759811660,861.0
22.786072225,909.0
22.812332790,890.0
22.838593355,851.0
22.864853920,956.0
22.891114485,925.0
22.917375050,891.0
22.943635615,864.0
22.969896180,900.0
22.996156745,900.0
23.022417310,951.0
23.048677875,941.0
23.074938440,941.0
23.101199005,905.0
23.127459570,931.0
23.153720135,908.0
23.179980700,921.0
23.206241265,924.0
23.232501830,899.0
23.258762395,898.0
23.285022960,911.0
23.311283525,969.0
23.337544090,935.0
23.363804655,955.0
23.390065220,948.0
23.416325785,947.0
23.442586350,947.0
23.468846915,956.0
23.495107480,948.0
23.521368045,894.0
23.547628610,926.0
23.573889175,940.0
23.600149740,931.0
23.626410305,935.0
23.652670870,942.0
23.678931435,957.0
23.705192000,926.0
23.731452566,937.0
23.757713131,976.0
23.783973696,942.0
23.810234261,961.0
23.836494826,949.0
23.862755391,942.0
23.889015956,960.0
23.915276521,965.0
23.941537086,994.0
23.967797651,950.0
23.994058216,954.0
24.020318781,955.0
24.046579346,953.0
24.072839911,964.0
24.099100476,943.0
24.125361041,917.0
24.151621606,998.0
24.177882171,969.0
24.204142736,913.0
24.230403301,963.0
24.256663866,941.0
24.282924431,886.0
24.309184996,999.0
24.335445561,974.0
24.361706126,911.0
24.387966691,901.0
24.414227256,946.0
24.440487821,925.0
24.466748386,969.0
24.493008951,947.0
24.519269516,935.0
24.545530081,924.0
24.571790646,913.0
24.598051211,920.0
24.624311776,910.0
24.650572341,963.0
24.676832906,944.0
24.703093471,955.0
24.729354036,928.0
24.755614601,876.0
24.781875166,934.0
24.808135731,980.0
24.834396296,939.0
24.860656861,1013.0
24.886917426,972.0
24.913177991,1001.0
24.939438556,925.0
24.965699121,970.0
24.991959686,951.0
25.018220251,1031.0
25.044480816,949.0
25.070741381,962.0
25.097001946,957.0
25.123262511,913.0
25.149523076,920.0
25.175783641,981.0
25.202044206,934.0
25.228304771,958.0
25.254565336,981.0
25.280825901,954.0
25.307086466,974.0
25.333347031,957.0
25.359607596,1020.0
25.385868161,974.0
25.412128726,975.0
25.438389291,979.0
25.464649856,932.0
25.490910421,1007.0
25.517170986,977.0
25.543431551,951.0
25.569692116,967.0
25.595952681,1007.0
25.622213246,1014.0
25.648473811,1006.0
25.674734376,932.0
25.700994941,1001.0
25.727255506,987.0
25.753516071,957.0
25.779776636,1023.0
25.806037201,979.0
25.832297766,1018.0
25.858558331,1015.0
25.884818896,966.0
25.911079461,954.0
25.937340026,961.0
25.963600591,946.0
25.989861156,968.0
26.016121721,968.0
26.042382286,929.0
26.068642851,944.0
26.094903416,972.0
26.121163981,953.0
26.147424546,1030.0
26.173685111,968.0
26.199945676,936.0
26.226206241,1003.0
26.252466806,1010.0
26.278727371,1002.0
26.304987936,918.0
26.331248501,970.0
26.357509066,993.0
26.383769631,963.0
26.410030196,1053.0
26.436290761,991.0
26.462551326,958.0
26.488811891,1016.0
26.515072456,1031.0
26.541333021,987.0
26.567593586,1085.0
26.593854151,1003.0
26.620114716,964.0
26.646375281,1014.0
26.672635846,1000.0
26.698896411,1044.0
26.725156976,956.0
26.751417541,985.0
26.777678106,996.0
26.803938671,1028.0
26.830199236,944.0
26.856459801,1024.0
26.882720366,949.0
26.908980931,1018.0
26.935241496,985.0
26.961502061,960.0
26.987762626,988.0
27.014023191,990.0
27.040283756,930.0
27.066544321,980.0
27.092804886,999.0
27.119065451,1013.0
27.145326017,1041.0
27.171586582,967.0
27.197847147,976.0
27.224107712,1009.0
27.250368277,954.0
27.276628842,1016.0
27.302889407,942.0
27.329149972,958.0
27.355410537,983.0
27.381671102,969.0
27.407931667,998.0
27.434192232,1021.0
27.460452797,957.0
27.486713362,992.0
27.512973927,1003.0
27.539234492,1048.0
27.565495057,971.0
27.591755622,976.0
27.618016187,990.0
27.644276752,963.0
27.670537317,954.0
27.696797882,1021.0
27.723058447,1015.0
27.749319012,970.0
27.775579577,1010.0
27.801840142,992.0
27.828100707,968.0
27.854361272,985.0
27.880621837,954.0
27.906882402,1037.0
27.933142967,937.0
27.959403532,951.0
27.985664097,920.0
28.011924662,1035.0
28.038185227,1005.0
28.064445792,941.0
28.090706357,957.0
28.116966922,1043.0
28.143227487,983.0
28.169488052,994.0
28.195748617,987.0
28.222009182,981.0
28.248269747,1016.0
28.274530312,882.0
28.300790877,965.0
28.327051442,962.0
28.353312007,858.0
28.379572572,970.0
28.405833137,1005.0
28.432093702,1037.0
28.458354267,1030.0
28.484614832,951.0
28.510875397,953.0
28.537135962,984.0
28.563396527,994.0
28.589657092,957.0
28.615917657,989.0
28.642178222,962.0
28.668438787,984.0
28.694699352,984.0
28.720959917,954.0
28.747220482,979.0
28.773481047,1008.0
28.799741612,937.0
28.826002177,1022.0
28.852262742,951.0
28.878523307,1048.0
28.904783872,957.0
28.931044437,1014.0
28.957305002,1023.0
28.983565567,995.0
29.009826132,1015.0
29.036086697,900.0
29.062347262,990.0
29.088607827,1000.0
29.114868392,920.0
29.141128957,985.0
29.167389522,969.0
29.193650087,968.0
29.219910652,923.0
29.246171217,937.0
29.272431782,971.0
29.298692347,969.0
29.324952912,943.0
29.351213477,972.0
29.377474042,985.0
29.403734607,981.0
29.429995172,950.0
29.456255737,1021.0
29.482516302,964.0
29.508776867,953.0
29.535037432,934.0
29.561297997,1002.0
29.587558562,933.0
29.613819127,985.0
29.640079692,992.0
29.666340257,954.0
29.692600822,969.0
29.718861387,965.0
29.745121952,985.0
29.771382517,1025.0
29.797643082,930.0
29.823903647,924.0
29.850164212,1037.0
29.876424777,954.0
29.902685342,897.0
29.928945907,959.0
29.955206472,911.0
29.981467037,895.0
30.007727602,928.0
30.033988167,920.0
30.060248732,953.0
30.086509297,987.0
30.112769862,947.0
30.139030427,984.0
30.165290992,955.0
30.191551557,953.0
30.217812122,948.0
30.244072687,1000.0
30.270333252,962.0
30.296593817,998.0
30.322854382,960.0
30.349114947,935.0
30.375375512,992.0
30.401636077,873.0
30.427896642,933.0
30.454157207,986.0
30.480417772,926.0
30.506678337,951.0
30.532938903,971.0
30.559199468,990.0
30.585460033,897.0
30.611720598,917.0
30.637981163,864.0
30.664241728,925.0
30.690502293,911.0
30.716762858,947.0
30.743023423,910.0
30.769283988,979.0
30.795544553,920.0
30.821805118,974.0
30.848065683,919.0
30.874326248,902.0
30.900586813,958.0
30.926847378,953.0
30.953107943,911.0
30.979368508,952.0
31.005629073,956.0
31.031889638,982.0
31.058150203,962.0
31.084410768,963.0
31.110671333,994.0
31.136931898,967.0
31.163192463,851.0
31.189453028,946.0
31.215713593,971.0
31.241974158,850.0
31.268234723,940.0
31.294495288,924.0
31.320755853,944.0
31.347016418,919.0
31.373276983,952.0
31.399537548,916.0
31.425798113,917.0
31.452058678,925.0
31.478319243,903.0
31.504579808,935.0
31.530840373,913.0
31.557100938,900.0
31.583361503,870.0
31.609622068,942.0
31.635882633,926.0
31.662143198,954.0
31.688403763,853.0
31.714664328,849.0
31.740924893,903.0
31.767185458,888.0
31.793446023,927.0
31.819706588,961.0
31.845967153,903.0
31.872227718,945.0
31.898488283,973.0
31.924748848,921.0
31.951009413,918.0
31.977269978,875.0
32.003530543,930.0
32.029791108,915.0
32.056051673,899.0
32.082312238,901.0
32.108572803,904.0
32.134833368,917.0
32.161093933,904.0
32.187354498,908.0
32.213615063,917.0
32.239875628,936.0
32.266136193,888.0
32.292396758,927.0
32.318657323,908.0
32.344917888,928.0
32.371178453,920.0
32.397439018,878.0
32.423699583,944.0
32.449960148,950.0
32.476220713,915.0
32.502481278,928.0
32.528741843,940.0
32.555002408,868.0
32.581262973,892.0
32.607523538,859.0
32.633784103,921.0
32.660044668,972.0
32.686305233,908.0
32.712565798,906.0
32.738826363,868.0
32.765086928,861.0
32.791347493,848.0
32.817608058,922.0
32.843868623,833.0
32.870129188,921.0
32.896389753,883.0
32.922650318,948.0
32.948910883,905.0
32.975171448,916.0
33.001432013,880.0
33.027692578,853.0
33.053953143,884.0
33.080213708,905.0
33.106474273,870.0
33.132734838,859.0
33.158995403,831.0
33.185255968,884.0
33.211516533,929.0
33.237777098,875.0
33.264037663,905.0
33.290298228,871.0
33.316558793,864.0
33.342819358,935.0
33.369079923,899.0
33.395340488,897.0
33.421601053,861.0
33.447861618,878.0
33.474122183,833.0
33.500382748,827.0
33.526643313,849.0
33.552903878,836.0
33.579164443,859.0
33.605425008,889.0
33.631685573,902.0
33.657946138,843.0
33.684206703,882.0
33.710467268,886.0
33.736727833,896.0
33.762988398,911.0
33.789248963,813.0
33.815509528,866.0
33.841770093,854.0
33.868030658,904.0
33.894291223,834.0
33.920551789,904.0
33.946812354,874.0
33.973072919,801.0
33.999333484,848.0
34.025594049,862.0
34.051854614,817.0
34.078115179,845.0
34.104375744,869.0
34.130636309,824.0
34.156896874,871.0
34.183157439,844.0
34.209418004,836.0
34.235678569,836.0
34.261939134,796.0
34.288199699,839.0
34.314460264,882.0
34.340720829,840.0
34.366981394,828.0
34.393241959,909.0
34.419502524,842.0
34.445763089,821.0
34.472023654,860.0
34.498284219,847.0
34.524544784,872.0
34.550805349,882.0
34.577065914,792.0
34.603326479,777.0
34.629587044,798.0
34.655847609,797.0
34.682108174,849.0
34.708368739,874.0
34.734629304,850.0
34.760889869,852.0
34.787150434,841.0
34.813410999,821.0
34.839671564,818.0
34.865932129,802.0
34.892192694,797.0
34.918453259,837.0
34.944713824,795.0
34.970974389,810.0
34.997234954,791.0
35.023495519,795.0
35.049756084,823.0
35.076016649,861.0
35.102277214,801.0
35.128537779,771.0
35.154798344,846.0
35.181058909,779.0
35.207319474,819.0
35.233580039,820.0
35.259840604,749.0
35.286101169,846.0
35.312361734,875.0
35.338622299,799.0
35.364882864,743.0
35.391143429,761.0
35.417403994,815.0
35.443664559,775.0
35.469925124,776.0
35.496185689,833.0
35.522446254,801.0
35.548706819,744.0
35.574967384,743.0
35.601227949,862.0
35.627488514,823.0
35.653749079,824.0
35.680009644,795.0
35.706270209,806.0
35.732530774,838.0
35.758791339,820.0
35.785051904,788.0
35.811312469,811.0
35.837573034,795.0
35.863833599,779.0
35.890094164,827.0
35.916354729,815.0
35.942615294,747.0
35.968875859,818.0
35.995136424,779.0
36.021396989,786.0
36.047657554,803.0
36.073918119,788.0
36.100178684,784.0
36.126439249,807.0
36.152699814,805.0
36.178960379,793.0
36.205220944,733.0
36.231481509,764.0
36.257742074,776.0
36.284002639,805.0
36.310263204,752.0
36.336523769,748.0
36.362784334,800.0
36.389044899,749.0
36.415305464,745.0
36.441566029,781.0
36.467826594,807.0
36.494087159,751.0
36.520347724,761.0
36.546608289,705.0
36.572868854,783.0
36.599129419,730.0
36.625389984,763.0
36.651650549,798.0
36.677911114,737.0
36.704171679,746.0
36.730432244,751.0
36.756692809,761.0
36.782953374,865.0
36.809213939,807.0
36.835474504,769.0
36.861735069,737.0
36.887995634,721.0
36.914256199,729.0
36.940516764,720.0
36.966777329,683.0
36.993037894,778.0
37.019298459,772.0
37.045559024,767.0
37.071819589,669.0
37.098080154,742.0
37.124340719,720.0
37.150601284,780.0
37.176861849,704.0
37.203122414,719.0
37.229382979,796.0
37.255643544,703.0
37.281904109,673.0
37.308164674,778.0
37.334425240,754.0
37.360685805,732.0
37.386946370,710.0
37.413206935,689.0
37.439467500,742.0
37.465728065,725.0
37.491988630,725.0
37.518249195,733.0
37.544509760,724.0
37.570770325,751.0
37.597030890,714.0
37.623291455,713.0
37.649552020,694.0
37.675812585,755.0
37.702073150,670.0
37.728333715,739.0
37.754594280,789.0
37.780854845,765.0
37.807115410,710.0
37.833375975,739.0
37.859636540,734.0
37.885897105,700.0
37.912157670,677.0
37.938418235,744.0
37.964678800,672.0
37.990939365,687.0
38.017199930,706.0
38.043460495,731.0
38.069721060,656.0
38.095981625,698.0
38.122242190,717.0
38.148502755,719.0
38.174763320,731.0
38.201023885,718.0
38.227284450,698.0
38.253545015,722.0
38.279805580,681.0
38.306066145,719.0
38.332326710,727.0
38.358587275,689.0
38.384847840,711.0
38.411108405,700.0
38.437368970,716.0
38.463629535,727.0
38.489890100,734.0
38.516150665,673.0
38.542411230,649.0
38.568671795,668.0
38.594932360,666.0
38.621192925,711.0
38.647453490,675.0
38.673714055,671.0
38.699974620,641.0
38.726235185,697.0
38.752495750,669.0
38.778756315,688.0
38.805016880,694.0
38.831277445,666.0
38.857538010,705.0
38.883798575,661.0
38.910059140,675.0
38.936319705,742.0
38.962580270,716.0
38.988840835,727.0
39.015101400,684.0
39.041361965,670.0
39.067622530,654.0
39.093883095,729.0
39.120143660,679.0
39.146404225,678.0
39.172664790,667.0
39.198925355,678.0
39.225185920,667.0
39.251446485,678.0
39.277707050,719.0
39.303967615,713.0
39.330228180,703.0
39.356488745,658.0
39.382749310,690.0
39.409009875,693.0
39.435270440,640.0
39.461531005,717.0
39.487791570,709.0
39.514052135,726.0
39.540312700,721.0
39.566573265,666.0
39.592833830,704.0
39.619094395,706.0
39.645354960,680.0
39.671615525,669.0
39.697876090,641.0
39.724136655,707.0
39.750397220,616.0
39.776657785,735.0
39.802918350,695.0
39.829178915,668.0
39.855439480,658.0
39.881700045,630.0
39.907960610,669.0
39.934221175,644.0
39.960481740,637.0
39.986742305,604.0
40.013002870,688.0
40.039263435,660.0
40.065524000,649.0
40.091784565,672.0
40.118045130,676.0
40.144305695,668.0
40.170566260,655.0
40.196826825,675.0
40.223087390,690.0
40.249347955,712.0
40.275608520,683.0
40.301869085,678.0
40.328129650,685.0
40.354390215,682.0
40.380650780,671.0
40.406911345,629.0
40.433171910,695.0
40.459432475,657.0
40.485693040,712.0
40.511953605,649.0
40.538214170,660.0
40.564474735,679.0
40.590735300,698.0
40.616995865,616.0
40.643256430,669.0
40.669516995,624.0
40.695777560,697.0
40.722038126,645.0
40.748298691,641.0
40.774559256,682.0
40.800819821,632.0
40.827080386,719.0
40.853340951,669.0
40.879601516,670.0
40.905862081,686.0
40.932122646,662.0
40.958383211,659.0
40.984643776,656.0
41.010904341,653.0
41.037164906,662.0
41.063425471,651.0
41.089686036,701.0
41.115946601,660.0
41.142207166,644.0
41.168467731,674.0
41.194728296,646.0
41.220988861,640.0
41.247249426,648.0
41.273509991,632.0
41.299770556,669.0
41.326031121,678.0
41.352291686,698.0
41.378552251,660.0
41.404812816,634.0
41.431073381,701.0
41.457333946,633.0
41.483594511,634.0
41.509855076,698.0
41.536115641,673.0
41.562376206,676.0
41.588636771,663.0
41.614897336,690.0
41.641157901,682.0
41.667418466,617.0
41.693679031,660.0
41.719939596,671.0
41.746200161,703.0
41.772460726,685.0
41.798721291,698.0
41.824981856,679.0
41.851242421,662.0
41.877502986,695.0
41.903763551,681.0
41.930024116,654.0
41.956284681,721.0
41.982545246,687.0
42.008805811,654.0
42.035066376,649.0
42.061326941,635.0
42.087587506,696.0
42.113848071,697.0
42.140108636,676.0
42.166369201,667.0
42.192629766,700.0
42.218890331,671.0
42.245150896,703.0
42.271411461,695.0
42.297672026,728.0
42.323932591,671.0
42.350193156,730.0
42.376453721,753.0
42.402714286,680.0
42.428974851,661.0
42.455235416,680.0
42.481495981,691.0
42.507756546,687.0
42.534017111,705.0
42.560277676,705.0
42.586538241,719.0
42.612798806,693.0
42.639059371,770.0
42.665319936,681.0
42.691580501,718.0
42.717841066,714.0
42.744101631,667.0
42.770362196,685.0
42.796622761,702.0
42.822883326,615.0
42.849143891,676.0
42.875404456,705.0
42.901665021,697.0
42.927925586,633.0
42.954186151,663.0
42.980446716,662.0
43.006707281,629.0
43.032967846,616.0
43.059228411,645.0
43.085488976,667.0
43.111749541,637.0
43.138010106,595.0
43.164270671,664.0
43.190531236,687.0
43.216791801,652.0
43.243052366,655.0
43.269312931,658.0
43.295573496,623.0
43.321834061,674.0
43.348094626,638.0
43.374355191,633.0
43.400615756,679.0
43.426876321,609.0
43.453136886,640.0
43.479397451,622.0
43.505658016,588.0
43.531918581,612.0
43.558179146,651.0
43.584439711,623.0
43.610700276,664.0
43.636960841,592.0
43.663221406,583.0
43.689481971,659.0
43.715742536,610.0
43.742003101,615.0
43.768263666,616.0
43.794524231,607.0
43.820784796,593.0
43.847045361,607.0
43.873305926,568.0
43.899566491,589.0
43.925827056,589.0
43.952087621,557.0
43.978348186,580.0
44.004608751,601.0
44.030869316,572.0
44.057129881,575.0
44.083390446,597.0
44.109651011,567.0
44.135911577,590.0
44.162172142,605.0
44.188432707,579.0
44.214693272,577.0
44.240953837,610.0
44.267214402,507.0
44.293474967,556.0
44.319735532,557.0
44.345996097,560.0
44.372256662,565.0
44.398517227,592.0
44.424777792,580.0
44.451038357,549.0
44.477298922,555.0
44.503559487,550.0
44.529820052,538.0
44.556080617,546.0
44.582341182,545.0
44.608601747,591.0
44.634862312,576.0
44.661122877,565.0
44.687383442,531.0
44.713644007,581.0
44.739904572,522.0
44.766165137,575.0
44.792425702,563.0
44.818686267,601.0
44.844946832,557.0
44.871207397,562.0
44.897467962,556.0
44.923728527,598.0
44.949989092,592.0
44.976249657,531.0
45.002510222,538.0
45.028770787,546.0
45.055031352,563.0
45.081291917,488.0
45.107552482,529.0
45.133813047,519.0
45.160073612,557.0
45.186334177,550.0
45.212594742,568.0
45.238855307,554.0
45.265115872,552.0
45.291376437,558.0
45.317637002,550.0
45.343897567,512.0
45.370158132,524.0
45.396418697,495.0
45.422679262,572.0
45.448939827,470.0
45.475200392,515.0
45.501460957,537.0
45.527721522,565.0
45.553982087,491.0
45.580242652,526.0
45.606503217,493.0
45.632763782,500.0
45.659024347,533.0
45.685284912,569.0
45.711545477,524.0
45.737806042,516.0
45.764066607,527.0
45.790327172,506.0
45.816587737,544.0
45.842848302,512.0
45.869108867,535.0
45.895369432,475.0
45.921629997,527.0
45.947890562,493.0
45.974151127,520.0
46.000411692,541.0
46.026672257,485.0
46.052932822,507.0
46.079193387,471.0
46.105453952,521.0
46.131714517,490.0
46.157975082,495.0
46.184235647,504.0
46.210496212,514.0
46.236756777,478.0
46.263017342,508.0
46.289277907,441.0
46.315538472,506.0
46.341799037,512.0
46.368059602,517.0
46.394320167,476.0
46.420580732,511.0
46.446841297,458.0
46.473101862,497.0
46.499362427,534.0
46.525622992,502.0
46.551883557,500.0
46.578144122,481.0
46.604404687,494.0
46.630665252,436.0
46.656925817,468.0
46.683186382,485.0
46.709446947,485.0
46.735707512,480.0
46.761968077,482.0
46.788228642,489.0
46.814489207,490.0
46.840749772,501.0
46.867010337,473.0
46.893270902,486.0
46.919531467,490.0
46.945792032,496.0
46.972052597,450.0
46.998313162,551.0
47.024573727,479.0
47.050834292,516.0
47.077094857,452.0
47.103355422,499.0
47.129615987,474.0
47.155876552,509.0
47.182137117,438.0
47.208397682,435.0
47.234658247,444.0
47.260918812,456.0
47.287179377,475.0
47.313439942,495.0
47.339700507,463.0
47.365961072,485.0
47.392221637,470.0
47.418482202,502.0
47.444742767,478.0
47.471003332,475.0
47.497263897,456.0
47.523524463,445.0
47.549785028,492.0
47.576045593,482.0
47.602306158,457.0
47.628566723,474.0
47.654827288,498.0
47.681087853,475.0
47.707348418,437.0
47.733608983,524.0
47.759869548,486.0
47.786130113,440.0
47.812390678,438.0
47.838651243,461.0
47.864911808,479.0
47.891172373,492.0
47.917432938,430.0
47.943693503,434.0
47.969954068,440.0
47.996214633,448.0
48.022475198,469.0
48.048735763,474.0
48.074996328,461.0
48.101256893,434.0
48.127517458,471.0
48.153778023,465.0
48.180038588,438.0
48.206299153,431.0
48.232559718,472.0
48.258820283,441.0
48.285080848,429.0
48.311341413,456.0
48.337601978,440.0
48.363862543,465.0
48.390123108,478.0
48.416383673,436.0
48.442644238,434.0
48.468904803,450.0
48.495165368,503.0
48.521425933,422.0
48.547686498,449.0
48.573947063,456.0
48.600207628,427.0
48.626468193,455.0
48.652728758,451.0
48.678989323,468.0
48.705249888,487.0
48.731510453,469.0
48.757771018,394.0
48.784031583,461.0
48.810292148,415.0
48.836552713,423.0
48.862813278,459.0
48.889073843,443.0
48.915334408,440.0
48.941594973,434.0
48.967855538,431.0
48.994116103,444.0
49.020376668,456.0
49.046637233,427.0
49.072897798,437.0
49.099158363,425.0
49.125418928,427.0
49.151679493,439.0
49.177940058,451.0
49.204200623,452.0
49.230461188,485.0
49.256721753,439.0
49.282982318,424.0
49.309242883,387.0
49.335503448,410.0
49.361764013,464.0
49.388024578,442.0
49.414285143,416.0
49.440545708,425.0
49.466806273,431.0
49.493066838,445.0
49.519327403,437.0
49.545587968,417.0
49.571848533,426.0
49.598109098,397.0
49.624369663,411.0
49.650630228,450.0
49.676890793,410.0
49.703151358,420.0
49.729411923,418.0
49.755672488,390.0
49.781933053,440.0
49.808193618,433.0
49.834454183,429.0
49.860714748,439.0
49.886975313,456.0
49.913235878,448.0
49.939496443,435.0
49.965757008,430.0
49.992017573,447.0
50.018278138,423.0
50.044538703,422.0
50.070799268,413.0
50.097059833,427.0
50.123320398,412.0
50.149580963,433.0
50.175841528,411.0
50.202102093,437.0
50.228362658,378.0
50.254623223,407.0
50.280883788,425.0
50.307144353,421.0
50.333404918,437.0
50.359665483,426.0
50.385926048,403.0
50.412186613,434.0
50.438447178,411.0
50.464707743,441.0
50.490968308,408.0
50.517228873,418.0
50.543489438,391.0
50.569750003,408.0
50.596010568,429.0
50.622271133,455.0
50.648531698,401.0
50.674792263,445.0
50.701052828,400.0
50.727313393,430.0
50.753573958,379.0
50.779834523,429.0
50.806095088,407.0
50.832355653,413.0
50.858616218,424.0
50.884876783,432.0
50.911137349,416.0
50.937397914,445.0
50.963658479,371.0
50.989919044,427.0
51.016179609,400.0
51.042440174,418.0
51.068700739,412.0
51.094961304,420.0
51.121221869,434.0
51.147482434,430.0
51.173742999,405.0
51.200003564,375.0
51.226264129,403.0
51.252524694,400.0
51.278785259,433.0
51.305045824,439.0
51.331306389,424.0
51.357566954,403.0
51.383827519,392.0
51.410088084,387.0
51.436348649,406.0
51.462609214,403.0
51.488869779,407.0
51.515130344,373.0
51.541390909,389.0
51.567651474,401.0
51.593912039,393.0
51.620172604,407.0
51.646433169,389.0
51.672693734,401.0
51.698954299,416.0
51.725214864,415.0
51.751475429,401.0
51.777735994,450.0
51.803996559,399.0
51.830257124,401.0
51.856517689,418.0
51.882778254,405.0
51.909038819,422.0
51.935299384,384.0
51.961559949,379.0
51.987820514,391.0
52.014081079,412.0
52.040341644,365.0
52.066602209,419.0
52.092862774,456.0
52.119123339,403.0
52.145383904,373.0
52.171644469,381.0
52.197905034,423.0
52.224165599,411.0
52.250426164,392.0
52.276686729,422.0
52.302947294,398.0
52.329207859,375.0
52.355468424,392.0
52.381728989,392.0
52.407989554,376.0
52.434250119,380.0
52.460510684,402.0
52.486771249,405.0
52.513031814,422.0
52.539292379,384.0
52.565552944,387.0
52.591813509,414.0
52.618074074,398.0
52.644334639,408.0
52.670595204,397.0
52.696855769,365.0
52.723116334,337.0
52.749376899,386.0
52.775637464,414.0
52.801898029,393.0
52.828158594,382.0
52.854419159,377.0
52.880679724,376.0
52.906940289,392.0
52.933200854,383.0
52.959461419,387.0
52.985721984,378.0
53.011982549,381.0
53.038243114,403.0
53.064503679,357.0
53.090764244,357.0
53.117024809,390.0
53.143285374,410.0
53.169545939,351.0
53.195806504,376.0
53.222067069,421.0
53.248327634,386.0
53.274588199,384.0
53.300848764,392.0
53.327109329,406.0
53.353369894,388.0
53.379630459,428.0
53.405891024,378.0
53.432151589,406.0
53.458412154,374.0
53.484672719,387.0
53.510933284,404.0
53.537193849,362.0
53.563454414,389.0
53.589714979,337.0
53.615975544,369.0
53.642236109,392.0
53.668496674,377.0
53.694757239,393.0
53.721017804,385.0
53.747278369,344.0
53.773538934,381.0
53.799799499,365.0
53.826060064,354.0
53.852320629,373.0
53.878581194,403.0
53.904841759,372.0
53.931102324,364.0
53.957362889,344.0
53.983623454,365.0
54.009884019,376.0
54.036144584,311.0
54.062405149,399.0
54.088665714,372.0
54.114926279,388.0
54.141186844,383.0
54.167447409,375.0
54.193707974,383.0
54.219968539,375.0
54.246229104,373.0
54.272489669,389.0
54.298750234,378.0
54.325010800,402.0
54.351271365,393.0
54.377531930,370.0
54.403792495,376.0
54.430053060,414.0
54.456313625,361.0
54.482574190,346.0
54.508834755,428.0
54.535095320,391.0
54.561355885,378.0
54.587616450,388.0
54.613877015,391.0
54.640137580,393.0
54.666398145,373.0
54.692658710,381.0
54.718919275,357.0
54.745179840,391.0
54.771440405,345.0
54.797700970,372.0
54.823961535,365.0
54.850222100,370.0
54.876482665,401.0
54.902743230,367.0
54.929003795,368.0
54.955264360,331.0
54.981524925,406.0
55.007785490,370.0
55.034046055,361.0
55.060306620,349.0
55.086567185,344.0
55.112827750,420.0
55.139088315,373.0
55.165348880,379.0
55.191609445,350.0
55.217870010,369.0
55.244130575,399.0
55.270391140,354.0
55.296651705,367.0
55.322912270,355.0
55.349172835,357.0
55.375433400,365.0
55.401693965,328.0
55.427954530,352.0
55.454215095,375.0
55.480475660,376.0
55.506736225,359.0
55.532996790,365.0
55.559257355,373.0
55.585517920,366.0
55.611778485,352.0
55.638039050,365.0
55.664299615,381.0
55.690560180,383.0
55.716820745,344.0
55.743081310,379.0
55.769341875,404.0
55.795602440,371.0
55.821863005,347.0
55.848123570,341.0
55.874384135,356.0
55.900644700,343.0
55.926905265,393.0
55.953165830,365.0
55.979426395,407.0
56.005686960,376.0
56.031947525,365.0
56.058208090,357.0
56.084468655,366.0
56.110729220,330.0
56.136989785,352.0
56.163250350,353.0
56.189510915,355.0
56.215771480,383.0
56.242032045,352.0
56.268292610,357.0
56.294553175,375.0
56.320813740,349.0
56.347074305,390.0
56.373334870,337.0
56.399595435,342.0
56.425856000,339.0
56.452116565,356.0
56.478377130,372.0
56.504637695,359.0
56.530898260,368.0
56.557158825,346.0
56.583419390,355.0
56.609679955,338.0
56.635940520,387.0
56.662201085,366.0
56.688461650,359.0
56.714722215,382.0
56.740982780,354.0
56.767243345,343.0
56.793503910,343.0
56.819764475,380.0
56.846025040,380.0
56.872285605,332.0
56.898546170,355.0
56.924806735,348.0
56.951067300,368.0
56.977327865,328.0
57.003588430,309.0
57.029848995,339.0
57.056109560,373.0
57.082370125,352.0
57.108630690,330.0
57.134891255,393.0
57.161151820,359.0
57.187412385,353.0
57.213672950,339.0
57.239933515,315.0
57.266194080,340.0
57.292454645,352.0
57.318715210,353.0
57.344975775,385.0
57.371236340,346.0
57.397496905,329.0
57.423757470,316.0
57.450018035,382.0
57.476278600,323.0
57.502539165,371.0
57.528799730,343.0
57.555060295,366.0
57.581320860,375.0
57.607581425,325.0
57.633841990,382.0
57.660102555,371.0
57.686363120,353.0
57.712623686,350.0
57.738884251,349.0
57.765144816,400.0
57.791405381,301.0
57.817665946,329.0
57.843926511,352.0
57.870187076,342.0
57.896447641,372.0
57.922708206,367.0
57.948968771,336.0
57.975229336,334.0
58.001489901,354.0
58.027750466,369.0
58.054011031,352.0
58.080271596,377.0
58.106532161,303.0
58.132792726,338.0
58.159053291,352.0
58.185313856,354.0
58.211574421,382.0
58.237834986,373.0
58.264095551,318.0
58.290356116,358.0
58.316616681,378.0
58.342877246,371.0
58.369137811,349.0
58.395398376,329.0
58.421658941,304.0
58.447919506,336.0
58.474180071,340.0
58.500440636,370.0
58.526701201,353.0
58.552961766,337.0
58.579222331,349.0
58.605482896,383.0
58.631743461,316.0
58.658004026,309.0
58.684264591,338.0
58.710525156,359.0
58.736785721,368.0
58.763046286,362.0
58.789306851,337.0
58.815567416,336.0
58.841827981,358.0
58.868088546,357.0
58.894349111,318.0
58.920609676,355.0
58.946870241,375.0
58.973130806,350.0
58.999391371,340.0
59.025651936,337.0
59.051912501,297.0
59.078173066,357.0
59.104433631,349.0
59.130694196,348.0
59.156954761,345.0
59.183215326,348.0
59.209475891,355.0
59.235736456,320.0
59.261997021,342.0
59.288257586,325.0
59.314518151,342.0
59.340778716,345.0
59.367039281,318.0
59.393299846,340.0
59.419560411,339.0
59.445820976,307.0
59.472081541,344.0
59.498342106,316.0
59.524602671,333.0
59.550863236,346.0
59.577123801,332.0
59.603384366,362.0
59.629644931,327.0
59.655905496,354.0
59.682166061,334.0
59.708426626,321.0
59.734687191,315.0
59.760947756,355.0
59.787208321,327.0
59.813468886,342.0
59.839729451,360.0
59.865990016,361.0
59.892250581,331.0
59.918511146,365.0
59.944771711,322.0
59.971032276,353.0
59.997292841,322.0
60.023553406,337.0
60.049813971,330.0
60.076074536,353.0
60.102335101,340.0
60.128595666,309.0
60.154856231,348.0
60.181116796,315.0
60.207377361,335.0
60.233637926,325.0
60.259898491,314.0
60.286159056,348.0
60.312419621,327.0
60.338680186,336.0
60.364940751,350.0
60.391201316,360.0
60.417461881,363.0
60.443722446,323.0
60.469983011,336.0
60.496243576,329.0
60.522504141,328.0
60.548764706,348.0
60.575025271,334.0
60.601285836,325.0
60.627546401,364.0
60.653806966,366.0
60.680067531,365.0
60.706328096,341.0
60.732588661,371.0
60.758849226,328.0
60.785109791,308.0
60.811370356,298.0
60.837630921,372.0
60.863891486,352.0
60.890152051,355.0
60.916412616,307.0
60.942673181,343.0
60.968933746,327.0
60.995194311,330.0
61.021454876,334.0
61.047715441,328.0
61.073976006,311.0
61.100236571,323.0
61.126497137,336.0
61.152757702,323.0
61.179018267,355.0
61.205278832,347.0
61.231539397,347.0
61.257799962,313.0
61.284060527,356.0
61.310321092,323.0
61.336581657,317.0
61.362842222,374.0
61.389102787,344.0
61.415363352,347.0
61.441623917,311.0
61.467884482,315.0
61.494145047,331.0
61.520405612,314.0
61.546666177,313.0
61.572926742,295.0
61.599187307,321.0
61.625447872,329.0
61.651708437,353.0
61.677969002,349.0
61.704229567,334.0
61.730490132,353.0
61.756750697,338.0
61.783011262,306.0
61.809271827,313.0
61.835532392,355.0
61.861792957,314.0
61.888053522,320.0
61.914314087,315.0
61.940574652,311.0
61.966835217,338.0
61.993095782,318.0
62.019356347,307.0
62.045616912,295.0
62.071877477,337.0
62.098138042,331.0
62.124398607,346.0
62.150659172,333.0
62.176919737,335.0
62.203180302,301.0
62.229440867,295.0
62.255701432,315.0
62.281961997,350.0
62.308222562,315.0
62.334483127,308.0
62.360743692,330.0
62.387004257,314.0
62.413264822,314.0
62.439525387,314.0
62.465785952,311.0
62.492046517,357.0
62.518307082,340.0
62.544567647,332.0
62.570828212,331.0
62.597088777,320.0
62.623349342,312.0
62.649609907,334.0
62.675870472,373.0
62.702131037,290.0
62.728391602,310.0
62.754652167,319.0
62.780912732,301.0
62.807173297,302.0
62.833433862,320.0
62.859694427,365.0
62.885954992,331.0
62.912215557,318.0
62.938476122,327.0
62.964736687,286.0
62.990997252,318.0
63.017257817,331.0
63.043518382,314.0
63.069778947,330.0
63.096039512,303.0
63.122300077,281.0
63.148560642,323.0
63.174821207,336.0
63.201081772,324.0
63.227342337,349.0
63.253602902,311.0
63.279863467,334.0
63.306124032,326.0
63.332384597,355.0
63.358645162,319.0
63.384905727,311.0
63.411166292,325.0
63.437426857,333.0
63.463687422,298.0
63.489947987,363.0
63.516208552,346.0
63.542469117,313.0
63.568729682,298.0
63.594990247,309.0
63.621250812,305.0
63.647511377,310.0
63.673771942,310.0
63.700032507,295.0
63.726293072,283.0
63.752553637,314.0
63.778814202,296.0
63.805074767,317.0
63.831335332,311.0
63.857595897,317.0
63.883856462,317.0
63.910117027,287.0
63.936377592,341.0
63.962638157,282.0
63.988898722,329.0
64.015159287,324.0
64.041419852,321.0
64.067680417,300.0
64.093940982,300.0
64.120201547,305.0
64.146462112,313.0
64.172722677,346.0
64.198983242,326.0
64.225243807,357.0
64.251504372,289.0
64.277764937,332.0
64.304025502,288.0
64.330286067,326.0
64.356546632,296.0
64.382807197,295.0
64.409067762,307.0
64.435328327,269.0
64.461588892,297.0
64.487849457,327.0
64.514110023,344.0
64.540370588,326.0
64.566631153,305.0
64.592891718,300.0
64.619152283,320.0
64.645412848,284.0
64.671673413,313.0
64.697933978,320.0
64.724194543,298.0
64.750455108,319.0
64.776715673,315.0
64.802976238,313.0
64.829236803,276.0
64.855497368,307.0
64.881757933,337.0
64.908018498,341.0
64.934279063,289.0
64.960539628,285.0
64.986800193,277.0
65.013060758,312.0
65.039321323,338.0
65.065581888,309.0
65.091842453,315.0
65.118103018,306.0
65.144363583,334.0
65.170624148,269.0
65.196884713,305.0
65.223145278,285.0
65.249405843,301.0
65.275666408,268.0
65.301926973,321.0
65.328187538,293.0
65.354448103,298.0
65.380708668,281.0
65.406969233,293.0
65.433229798,301.0
65.459490363,279.0
65.485750928,324.0
65.512011493,319.0
65.538272058,273.0
65.564532623,331.0
65.590793188,325.0
65.617053753,288.0
65.643314318,274.0
65.669574883,285.0
65.695835448,311.0
65.722096013,317.0
65.748356578,324.0
65.774617143,339.0
65.800877708,309.0
65.827138273,316.0
65.853398838,311.0
65.879659403,309.0
65.905919968,313.0
65.932180533,329.0
65.958441098,297.0
65.984701663,297.0
66.010962228,308.0
66.037222793,329.0
66.063483358,327.0
66.089743923,305.0
66.116004488,341.0
66.142265053,330.0
66.168525618,270.0
66.194786183,278.0
66.221046748,308.0
66.247307313,270.0
66.273567878,319.0
66.299828443,295.0
66.326089008,296.0
66.352349573,288.0
66.378610138,296.0
66.404870703,297.0
66.431131268,296.0
66.457391833,325.0
66.483652398,272.0
66.509912963,311.0
66.536173528,317.0
66.562434093,329.0
66.588694658,293.0
66.614955223,270.0
66.641215788,291.0
66.667476353,317.0
66.693736918,309.0
66.719997483,331.0
66.746258048,322.0
66.772518613,305.0
66.798779178,306.0
66.825039743,300.0
66.851300308,316.0
66.877560873,296.0
66.903821438,264.0
66.930082003,325.0
66.956342568,300.0
66.982603133,284.0
67.008863698,301.0
67.035124263,289.0
67.061384828,294.0
67.087645393,295.0
67.113905958,320.0
67.140166523,315.0
67.166427088,287.0
67.192687653,305.0
67.218948218,279.0
67.245208783,277.0
67.271469348,289.0
67.297729913,271.0
67.323990478,311.0
67.350251043,266.0
67.376511608,290.0
67.402772173,275.0
67.429032738,295.0
67.455293303,298.0
67.481553868,301.0
67.507814433,284.0
67.534074998,342.0
67.560335563,294.0
67.586596128,310.0
67.612856693,289.0
67.639117258,306.0
67.665377823,312.0
67.691638388,261.0
67.717898953,265.0
67.744159518,269.0
67.770420083,284.0
67.796680648,270.0
67.822941213,296.0
67.849201778,310.0
67.875462343,326.0
67.901722909,256.0
67.927983474,308.0
67.954244039,273.0
67.980504604,297.0
68.006765169,295.0
68.033025734,281.0
68.059286299,285.0
68.085546864,300.0
68.111807429,301.0
68.138067994,314.0
68.164328559,327.0
68.190589124,289.0
68.216849689,305.0
68.243110254,294.0
68.269370819,325.0
68.295631384,279.0
68.321891949,285.0
68.348152514,314.0
68.374413079,357.0
68.400673644,304.0
68.426934209,299.0
68.453194774,303.0
68.479455339,297.0
68.505715904,258.0
68.531976469,276.0
68.558237034,262.0
68.584497599,281.0
68.610758164,265.0
68.637018729,276.0
68.663279294,288.0
68.689539859,300.0
68.715800424,310.0
68.742060989,258.0
68.768321554,280.0
68.794582119,289.0
68.820842684,284.0
68.847103249,254.0
68.873363814,285.0
68.899624379,261.0
68.925884944,260.0
68.952145509,294.0
68.978406074,274.0
69.004666639,282.0
69.030927204,298.0
69.057187769,254.0
69.083448334,288.0
69.109708899,291.0
69.135969464,253.0
69.162230029,270.0
69.188490594,295.0
69.214751159,274.0
69.241011724,295.0
69.267272289,291.0
69.293532854,288.0
69.319793419,295.0
69.346053984,271.0
69.372314549,322.0
69.398575114,282.0
69.424835679,284.0
69.451096244,270.0
69.477356809,277.0
69.503617374,274.0
69.529877939,287.0
69.556138504,286.0
69.582399069,266.0
69.608659634,300.0
69.634920199,287.0
69.661180764,280.0
69.687441329,280.0
69.713701894,281.0
69.739962459,254.0
69.766223024,255.0
69.792483589,264.0
69.818744154,273.0
69.845004719,295.0
69.871265284,322.0
69.897525849,273.0
69.923786414,325.0
69.950046979,277.0
69.976307544,299.0
70.002568109,270.0
70.028828674,277.0
70.055089239,255.0
70.081349804,276.0
70.107610369,288.0
70.133870934,319.0
70.160131499,296.0
70.186392064,316.0
70.212652629,286.0
70.238913194,287.0
70.265173759,293.0
70.291434324,265.0
70.317694889,281.0
70.343955454,291.0
70.370216019,261.0
70.396476584,262.0
70.422737149,292.0
70.448997714,308.0
70.475258279,274.0
70.501518844,278.0
70.527779409,274.0
70.554039974,269.0
70.580300539,278.0
70.606561104,277.0
70.632821669,249.0
70.659082234,259.0
70.685342799,302.0
70.711603364,279.0
70.737863929,272.0
70.764124494,254.0
70.790385059,302.0
70.816645624,263.0
70.842906189,298.0
70.869166754,262.0
70.895427319,245.0
70.921687884,296.0
70.947948449,263.0
70.974209014,283.0
71.000469579,305.0
71.026730144,292.0
71.052990709,256.0
71.079251274,307.0
71.105511839,256.0
71.131772404,278.0
71.158032969,259.0
71.184293534,259.0
71.210554099,256.0
71.236814664,250.0
71.263075229,279.0
71.289335794,285.0
71.315596360,281.0
71.341856925,238.0
71.368117490,249.0
71.394378055,288.0
71.420638620,262.0
71.446899185,275.0
71.473159750,260.0
71.499420315,269.0
71.525680880,295.0
71.551941445,246.0
71.578202010,292.0
71.604462575,269.0
71.630723140,242.0
71.656983705,283.0
71.683244270,297.0
71.709504835,289.0
71.735765400,273.0
71.762025965,268.0
71.788286530,279.0
71.814547095,292.0
71.840807660,229.0
71.867068225,294.0
71.893328790,273.0
71.919589355,253.0
71.945849920,298.0
71.972110485,231.0
71.998371050,263.0
72.024631615,314.0
72.050892180,258.0
72.077152745,272.0
72.103413310,274.0
72.129673875,250.0
72.155934440,252.0
72.182195005,297.0
72.208455570,269.0
72.234716135,279.0
72.260976700,285.0
72.287237265,275.0
72.313497830,283.0
72.339758395,257.0
72.366018960,307.0
72.392279525,295.0
72.418540090,276.0
72.444800655,266.0
72.471061220,272.0
72.497321785,273.0
72.523582350,287.0
72.549842915,246.0
72.576103480,272.0
72.602364045,247.0
72.628624610,256.0
72.654885175,275.0
72.681145740,281.0
72.707406305,237.0
72.733666870,267.0
72.759927435,266.0
72.786188000,282.0
72.812448565,271.0
72.838709130,274.0
72.864969695,304.0
72.891230260,275.0
72.917490825,253.0
72.943751390,259.0
72.970011955,253.0
72.996272520,269.0
73.022533085,250.0
73.048793650,280.0
73.075054215,269.0
73.101314780,274.0
73.127575345,235.0
73.153835910,269.0
73.180096475,273.0
73.206357040,254.0
73.232617605,249.0
73.258878170,262.0
73.285138735,257.0
73.311399300,247.0
73.337659865,277.0
73.363920430,279.0
73.390180995,271.0
73.416441560,277.0
73.442702125,281.0
73.468962690,266.0
73.495223255,268.0
73.521483820,267.0
73.547744385,276.0
73.574004950,271.0
73.600265515,260.0
73.626526080,262.0
73.652786645,260.0
73.679047210,257.0
73.705307775,253.0
73.731568340,272.0
73.757828905,272.0
73.784089470,237.0
73.810350035,251.0
73.836610600,257.0
73.862871165,254.0
73.889131730,264.0
73.915392295,285.0
73.941652860,274.0
73.967913425,246.0
73.994173990,260.0
74.020434555,275.0
74.046695120,263.0
74.072955685,251.0
74.099216250,282.0
74.125476815,281.0
74.151737380,246.0
74.177997945,279.0
74.204258510,274.0
74.230519075,261.0
74.256779640,251.0
74.283040205,250.0
74.309300770,263.0
74.335561335,236.0
74.361821900,261.0
74.388082465,272.0
74.414343030,272.0
74.440603595,268.0
74.466864160,252.0
74.493124725,290.0
74.519385290,264.0
74.545645855,275.0
74.571906420,267.0
74.598166985,273.0
74.624427550,243.0
74.650688115,248.0
74.676948680,263.0
74.703209246,244.0
74.729469811,275.0
74.755730376,242.0
74.781990941,236.0
74.808251506,263.0
74.834512071,269.0
74.860772636,277.0
74.887033201,260.0
74.913293766,290.0
74.939554331,248.0
74.965814896,272.0
74.992075461,248.0
75.018336026,304.0
75.044596591,254.0
75.070857156,260.0
75.097117721,283.0
75.123378286,249.0
75.149638851,270.0
75.175899416,241.0
75.202159981,284.0
75.228420546,257.0
75.254681111,285.0
75.280941676,271.0
75.307202241,263.0
75.333462806,268.0
75.359723371,242.0
75.385983936,280.0
75.412244501,261.0
75.438505066,257.0
75.464765631,250.0
75.491026196,259.0
75.517286761,302.0
75.543547326,289.0
75.569807891,228.0
75.596068456,267.0
75.622329021,285.0
75.648589586,236.0
75.674850151,262.0
75.701110716,265.0
75.727371281,284.0
75.753631846,279.0
75.779892411,282.0
75.806152976,266.0
75.832413541,223.0
75.858674106,254.0
75.884934671,263.0
75.911195236,249.0
75.937455801,241.0
75.963716366,247.0
75.989976931,251.0
76.016237496,249.0
76.042498061,237.0
76.068758626,240.0
76.095019191,280.0
76.121279756,245.0
76.147540321,261.0
76.173800886,286.0
76.200061451,261.0
76.226322016,253.0
76.252582581,249.0
76.278843146,264.0
76.305103711,247.0
76.331364276,251.0
76.357624841,256.0
76.383885406,278.0
76.410145971,262.0
76.436406536,267.0
76.462667101,239.0
76.488927666,251.0
76.515188231,234.0
76.541448796,308.0
76.567709361,239.0
76.593969926,273.0
76.620230491,238.0
76.646491056,272.0
76.672751621,253.0
76.699012186,272.0
76.725272751,273.0
76.751533316,272.0
76.777793881,279.0
76.804054446,239.0
76.830315011,244.0
76.856575576,260.0
76.882836141,269.0
76.909096706,270.0
76.935357271,276.0
76.961617836,265.0
76.987878401,265.0
77.014138966,276.0
77.040399531,276.0
77.066660096,265.0
77.092920661,270.0
77.119181226,224.0
77.145441791,259.0
77.171702356,269.0
77.197962921,270.0
77.224223486,256.0
77.250484051,262.0
77.276744616,274.0
77.303005181,249.0
77.329265746,261.0
77.355526311,236.0
77.381786876,240.0
77.408047441,285.0
77.434308006,236.0
77.460568571,274.0
77.486829136,277.0
77.513089701,231.0
77.539350266,262.0
77.565610831,284.0
77.591871396,254.0
77.618131961,254.0
77.644392526,260.0
77.670653091,282.0
77.696913656,240.0
77.723174221,270.0
77.749434786,261.0
77.775695351,264.0
77.801955916,235.0
77.828216481,267.0
77.854477046,287.0
77.880737611,264.0
77.906998176,253.0
77.933258741,291.0
77.959519306,270.0
77.985779871,274.0
78.012040436,246.0
78.038301001,283.0
78.064561566,255.0
78.090822131,261.0
78.117082697,274.0
78.143343262,245.0
78.169603827,266.0
78.195864392,252.0
78.222124957,290.0
78.248385522,261.0
78.274646087,258.0
78.300906652,257.0
78.327167217,249.0
78.353427782,289.0
78.379688347,244.0
78.405948912,257.0
78.432209477,254.0
78.458470042,279.0
78.484730607,271.0
78.510991172,284.0
78.537251737,272.0
78.563512302,252.0
78.589772867,285.0
78.616033432,286.0
78.642293997,257.0
78.668554562,272.0
78.694815127,264.0
78.721075692,280.0
78.747336257,277.0
78.773596822,276.0
78.799857387,279.0
78.826117952,280.0
78.852378517,242.0
78.878639082,282.0
78.904899647,251.0
78.931160212,265.0
78.957420777,222.0
78.983681342,254.0
79.009941907,251.0
79.036202472,243.0
79.062463037,239.0
79.088723602,268.0
79.114984167,230.0
79.141244732,266.0
79.167505297,261.0
79.193765862,264.0
79.220026427,237.0
79.246286992,260.0
79.272547557,234.0
79.298808122,264.0
79.325068687,250.0
79.351329252,256.0
79.377589817,259.0
79.403850382,237.0
79.430110947,242.0
79.456371512,225.0
79.482632077,242.0
79.508892642,259.0
79.535153207,247.0
79.561413772,234.0
79.587674337,242.0
79.613934902,235.0
79.640195467,240.0
79.666456032,254.0
79.692716597,273.0
79.718977162,257.0
79.745237727,237.0
79.771498292,263.0
79.797758857,249.0
79.824019422,228.0
79.850279987,255.0
79.876540552,236.0
79.902801117,240.0
79.929061682,249.0
79.955322247,266.0
79.981582812,292.0
80.007843377,243.0
80.034103942,245.0
80.060364507,280.0
80.086625072,258.0
80.112885637,273.0
80.139146202,247.0
80.165406767,262.0
80.191667332,248.0
80.217927897,231.0
80.244188462,244.0
80.270449027,246.0
80.296709592,258.0
80.322970157,256.0
80.349230722,254.0
80.375491287,224.0
80.401751852,280.0
80.428012417,232.0
80.454272982,233.0
80.480533547,240.0
80.506794112,262.0
80.533054677,228.0
80.559315242,243.0
80.585575807,250.0
80.611836372,228.0
80.638096937,247.0
80.664357502,250.0
80.690618067,229.0
80.716878632,245.0
80.743139197,249.0
80.769399762,256.0
80.795660327,265.0
80.821920892,216.0
80.848181457,263.0
80.874442022,219.0
80.900702587,256.0
80.926963152,249.0
80.953223717,237.0
80.979484282,242.0
81.005744847,239.0
81.032005412,247.0
81.058265977,237.0
81.084526542,254.0
81.110787107,241.0
81.137047672,245.0
81.163308237,235.0
81.189568802,236.0
81.215829367,248.0
81.242089932,234.0
81.268350497,241.0
81.294611062,246.0
81.320871627,227.0
81.347132192,246.0
81.373392757,234.0
81.399653322,230.0
81.425913887,260.0
81.452174452,271.0
81.478435017,238.0
81.504695583,227.0
81.530956148,248.0
81.557216713,240.0
81.583477278,230.0
81.609737843,243.0
81.635998408,231.0
81.662258973,251.0
81.688519538,215.0
81.714780103,249.0
81.741040668,253.0
81.767301233,247.0
81.793561798,246.0
81.819822363,236.0
81.846082928,241.0
81.872343493,260.0
81.898604058,240.0
81.924864623,216.0
81.951125188,238.0
81.977385753,216.0
82.003646318,248.0
82.029906883,231.0
82.056167448,214.0
82.082428013,233.0
82.108688578,276.0
82.134949143,219.0
82.161209708,213.0
82.187470273,246.0
82.213730838,259.0
82.239991403,236.0
82.266251968,235.0
82.292512533,262.0
82.318773098,255.0
82.345033663,225.0
82.371294228,250.0
82.397554793,255.0
82.423815358,253.0
82.450075923,256.0
82.476336488,242.0
82.502597053,239.0
82.528857618,231.0
82.555118183,253.0
82.581378748,260.0
82.607639313,247.0
82.633899878,244.0
82.660160443,239.0
82.686421008,231.0
82.712681573,240.0
82.738942138,237.0
82.765202703,233.0
82.791463268,234.0
82.817723833,242.0
82.843984398,235.0
82.870244963,228.0
82.896505528,221.0
82.922766093,216.0
82.949026658,251.0
82.975287223,222.0
83.001547788,279.0
83.027808353,216.0
83.054068918,239.0
83.080329483,239.0
83.106590048,223.0
83.132850613,245.0
83.159111178,256.0
83.185371743,232.0
83.211632308,242.0
83.237892873,255.0
83.264153438,226.0
83.290414003,227.0
83.316674568,188.0
83.342935133,236.0
83.369195698,236.0
83.395456263,261.0
83.421716828,241.0
83.447977393,240.0
83.474237958,234.0
83.500498523,217.0
83.526759088,233.0
83.553019653,237.0
83.579280218,235.0
83.605540783,235.0
83.631801348,222.0
83.658061913,200.0
83.684322478,205.0
83.710583043,231.0
83.736843608,224.0
83.763104173,230.0
83.789364738,216.0
83.815625303,227.0
83.841885868,233.0
83.868146433,240.0
83.894406998,237.0
83.920667563,232.0
83.946928128,251.0
83.973188693,228.0
83.999449258,210.0
84.025709823,261.0
84.051970388,224.0
84.078230953,223.0
84.104491518,237.0
84.130752083,223.0
84.157012648,282.0
84.183273213,214.0
84.209533778,231.0
84.235794343,192.0
84.262054908,228.0
84.288315473,235.0
84.314576038,243.0
84.340836603,210.0
84.367097168,245.0
84.393357733,213.0
84.419618298,244.0
84.445878863,197.0
84.472139428,226.0
84.498399993,236.0
84.524660558,205.0
84.550921123,224.0
84.577181688,240.0
84.603442253,221.0
84.629702818,226.0
84.655963383,208.0
84.682223948,220.0
84.708484513,244.0
84.734745078,232.0
84.761005643,198.0
84.787266208,231.0
84.813526773,240.0
84.839787338,217.0
84.866047903,213.0
84.892308469,221.0
84.918569034,206.0
84.944829599,221.0
84.971090164,239.0
84.997350729,242.0
85.023611294,224.0
85.049871859,228.0
85.076132424,226.0
85.102392989,247.0
85.128653554,257.0
85.154914119,206.0
85.181174684,215.0
85.207435249,209.0
85.233695814,247.0
85.259956379,256.0
85.286216944,227.0
85.312477509,225.0
85.338738074,221.0
85.364998639,219.0
85.391259204,213.0
85.417519769,240.0
85.443780334,221.0
85.470040899,218.0
85.496301464,212.0
85.522562029,211.0
85.548822594,205.0
85.575083159,234.0
85.601343724,244.0
85.627604289,221.0
85.653864854,204.0
85.680125419,205.0
85.706385984,235.0
85.732646549,222.0
85.758907114,195.0
85.785167679,238.0
85.811428244,228.0
85.837688809,214.0
85.863949374,214.0
85.890209939,241.0
85.916470504,219.0
85.942731069,237.0
85.968991634,222.0
85.995252199,210.0
86.021512764,239.0
86.047773329,218.0
86.074033894,238.0
86.100294459,207.0
86.126555024,198.0
86.152815589,223.0
86.179076154,243.0
86.205336719,222.0
86.231597284,211.0
86.257857849,222.0
86.284118414,231.0
86.310378979,217.0
86.336639544,239.0
86.362900109,237.0
86.389160674,181.0
86.415421239,262.0
86.441681804,224.0
86.467942369,244.0
86.494202934,230.0
86.520463499,232.0
86.546724064,217.0
86.572984629,229.0
86.599245194,229.0
86.625505759,207.0
86.651766324,228.0
86.678026889,236.0
86.704287454,222.0
86.730548019,207.0
86.756808584,216.0
86.783069149,249.0
86.809329714,229.0
86.835590279,219.0
86.861850844,212.0
86.888111409,211.0
86.914371974,232.0
86.940632539,209.0
86.966893104,220.0
86.993153669,242.0
87.019414234,231.0
87.045674799,233.0
87.071935364,235.0
87.098195929,209.0
87.124456494,207.0
87.150717059,219.0
87.176977624,237.0
87.203238189,222.0
87.229498754,190.0
87.255759319,210.0
87.282019884,210.0
87.308280449,227.0
87.334541014,242.0
87.360801579,210.0
87.387062144,212.0
87.413322709,222.0
87.439583274,209.0
87.465843839,201.0
87.492104404,238.0
87.518364969,203.0
87.544625534,190.0
87.570886099,233.0
87.597146664,223.0
87.623407229,242.0
87.649667794,222.0
87.675928359,210.0
87.702188924,198.0
87.728449489,214.0
87.754710054,224.0
87.780970619,216.0
87.807231184,212.0
87.833491749,210.0
87.859752314,254.0
87.886012879,219.0
87.912273444,233.0
87.938534009,214.0
87.964794574,239.0
87.991055139,235.0
88.017315704,206.0
88.043576269,209.0
88.069836834,207.0
88.096097399,205.0
88.122357964,212.0
88.148618529,244.0
88.174879094,219.0
88.201139659,213.0
88.227400224,207.0
88.253660789,210.0
88.279921354,226.0
88.306181920,225.0
88.332442485,186.0
88.358703050,227.0
88.384963615,218.0
88.411224180,228.0
88.437484745,254.0
88.463745310,213.0
88.490005875,201.0
88.516266440,200.0
88.542527005,201.0
88.568787570,221.0
88.595048135,195.0
88.621308700,205.0
88.647569265,209.0
88.673829830,212.0
88.700090395,227.0
88.726350960,204.0
88.752611525,225.0
88.778872090,221.0
88.805132655,208.0
88.831393220,205.0
88.857653785,220.0
88.883914350,232.0
88.910174915,209.0
88.936435480,236.0
88.962696045,210.0
88.988956610,202.0
89.015217175,197.0
89.041477740,197.0
89.067738305,218.0
89.093998870,210.0
89.120259435,224.0
89.146520000,185.0
89.172780565,190.0
89.199041130,215.0
89.225301695,207.0
89.251562260,245.0
89.277822825,185.0
89.304083390,188.0
89.330343955,215.0
89.356604520,205.0
89.382865085,229.0
89.409125650,206.0
89.435386215,189.0
89.461646780,230.0
89.487907345,228.0
89.514167910,199.0
89.540428475,240.0
89.566689040,212.0
89.592949605,226.0
89.619210170,236.0
89.645470735,218.0
89.671731300,190.0
89.697991865,225.0
89.724252430,222.0
89.750512995,188.0
89.776773560,226.0
89.803034125,219.0
89.829294690,231.0
89.855555255,178.0
89.881815820,218.0
89.908076385,215.0
89.934336950,229.0
89.960597515,206.0
89.986858080,217.0
