[Measurement conditions]
Sample identification,
Comment - 1,"Configuration=Stage for flat samples/holders, Owner=User-1, Creation date=3/27/2015 11:56:23 AM"
Comment - 2,"Goniometer=Theta/Theta; Minimum step size 2Theta:0.0001; Minimum step size Omega:0.0001"
Comment - 3,"Sample stage=Stage for flat samples/holders"
Comment - 4,"Diffractometer system=EMPYREAN"
Comment - 5,"Measurement program=C:\PANalytical\Data Collector\Programs\Powder - Copy.xrdmp, Identifier={BEEA10DD-8FD6-4721-8940-4FBC5A4262A1}"
Comment - 6,"Fine Calibration Offset for 2Theta = -0.0130 deg"
Comment - 7,"Fine Calibration Offset for Omega = -0.0070 deg"
Anode material,Cu
K-Alpha1 wavelength,1.5405980
K-Alpha2 wavelength,1.5444260
Ratio K-Alpha2/K-Alpha1,0.500
Divergence slit,Fixed,0.38mm
Monochromator used,NO
Generator voltage, 40
Tube current, 35
File date and time,24/Jul/2017 15:55
Unit cell,
h k l, 0 0 0
Scan axis,Gonio
Scan range,5.020799997,89.999988363
Scan step size,0.0262606
No. of points, 3236
Scan type,CONTINUOUS
Time per step,18.615
[Scan points]
Angle,Intensity
5.033930280,1863.0
5.060190845,1903.0
5.086451410,1931.0
5.112711975,1927.0
5.138972540,1927.0
5.165233105,1993.0
5.191493670,2045.0
5.217754235,1914.0
5.244014800,1953.0
5.270275365,1882.0
5.296535930,1926.0
5.322796495,1970.0
5.349057060,2027.0
5.375317625,2003.0
5.401578190,1928.0
5.427838755,2044.0
5.454099320,1914.0
5.480359885,1922.0
5.506620450,1942.0
5.532881015,1934.0
5.559141580,1851.0
5.585402145,1943.0
5.611662710,1934.0
5.637923275,1975.0
5.664183840,1975.0
5.690444405,1955.0
5.716704970,1891.0
5.742965535,1939.0
5.769226100,2002.0
5.795486665,1978.0
5.821747230,1901.0
5.848007795,1956.0
5.874268360,1899.0
5.900528925,1981.0
5.926789490,1964.0
5.953050055,1957.0
5.979310620,1930.0
6.005571185,1916.0
6.031831750,2015.0
6.058092315,1949.0
6.084352880,1930.0
6.110613445,1913.0
6.136874010,1889.0
6.163134575,2000.0
6.189395140,1933.0
6.215655705,1906.0
6.241916270,1915.0
6.268176835,1984.0
6.294437400,1948.0
6.320697965,1969.0
6.346958530,1958.0
6.373219095,2047.0
6.399479660,1959.0
6.425740225,1905.0
6.452000790,2018.0
6.478261355,1995.0
6.504521920,1939.0
6.530782485,2004.0
6.557043050,1982.0
6.583303615,1905.0
6.609564180,1952.0
6.635824745,1972.0
6.662085310,1982.0
6.688345875,1856.0
6.714606440,1853.0
6.740867006,1939.0
6.767127571,2003.0
6.793388136,2025.0
6.819648701,2065.0
6.845909266,2019.0
6.872169831,2050.0
6.898430396,1963.0
6.924690961,1934.0
6.950951526,1997.0
6.977212091,1974.0
7.003472656,1955.0
7.029733221,2044.0
7.055993786,2034.0
7.082254351,1972.0
7.108514916,2049.0
7.134775481,1990.0
7.161036046,1916.0
7.187296611,1948.0
7.213557176,2021.0
7.239817741,2041.0
7.266078306,1983.0
7.292338871,2067.0
7.318599436,1967.0
7.344860001,2022.0
7.371120566,1951.0
7.397381131,2096.0
7.423641696,2019.0
7.449902261,1968.0
7.476162826,1950.0
7.502423391,2019.0
7.528683956,2034.0
7.554944521,2068.0
7.581205086,1962.0
7.607465651,2052.0
7.633726216,2050.0
7.659986781,2060.0
7.686247346,2007.0
7.712507911,2038.0
7.738768476,2086.0
7.765029041,2059.0
7.791289606,2105.0
7.817550171,2161.0
7.843810736,2120.0
7.870071301,2136.0
7.896331866,2127.0
7.922592431,2109.0
7.948852996,2100.0
7.975113561,2122.0
8.001374126,2108.0
8.027634691,2120.0
8.053895256,2106.0
8.080155821,2152.0
8.106416386,2164.0
8.132676951,2164.0
8.158937516,2180.0
8.185198081,2133.0
8.211458646,2234.0
8.237719211,2146.0
8.263979776,2216.0
8.290240341,2111.0
8.316500906,2187.0
8.342761471,2251.0
8.369022036,2264.0
8.395282601,2266.0
8.421543166,2231.0
8.447803731,2308.0
8.474064296,2255.0
8.500324861,2340.0
8.526585426,2289.0
8.552845991,2261.0
8.579106556,2363.0
8.605367121,2419.0
8.631627686,2437.0
8.657888251,2457.0
8.684148816,2357.0
8.710409381,2342.0
8.736669946,2458.0
8.762930511,2505.0
8.789191076,2437.0
8.815451641,2438.0
8.841712206,2370.0
8.867972771,2554.0
8.894233336,2736.0
8.920493901,2594.0
8.946754466,2580.0
8.973015031,2603.0
8.999275596,2666.0
9.025536161,2664.0
9.051796726,2752.0
9.078057291,2786.0
9.104317856,2836.0
9.130578421,2901.0
9.156838986,2859.0
9.183099551,3011.0
9.209360116,3049.0
9.235620681,2985.0
9.261881246,3016.0
9.288141811,3256.0
9.314402376,3131.0
9.340662941,3201.0
9.366923506,3305.0
9.393184071,3315.0
9.419444636,3365.0
9.445705201,3371.0
9.471965766,3298.0
9.498226331,3476.0
9.524486896,3312.0
9.550747461,3269.0
9.577008026,3244.0
9.603268591,3246.0
9.629529156,3309.0
9.655789721,3349.0
9.682050286,3253.0
9.708310851,3145.0
9.734571416,3090.0
9.760831981,3063.0
9.787092546,3013.0
9.813353111,3036.0
9.839613676,2963.0
9.865874241,2955.0
9.892134806,2876.0
9.918395371,2788.0
9.944655936,2721.0
9.970916501,2811.0
9.997177066,2731.0
10.023437631,2638.0
10.049698196,2641.0
10.075958761,2594.0
10.102219326,2570.0
10.128479891,2598.0
10.154740457,2432.0
10.181001022,2441.0
10.207261587,2362.0
10.233522152,2366.0
10.259782717,2345.0
10.286043282,2292.0
10.312303847,2289.0
10.338564412,2277.0
10.364824977,2270.0
10.391085542,2274.0
10.417346107,2129.0
10.443606672,2216.0
10.469867237,2252.0
10.496127802,2090.0
10.522388367,2151.0
10.548648932,2075.0
10.574909497,2012.0
10.601170062,2038.0
10.627430627,2008.0
10.653691192,2032.0
10.679951757,2060.0
10.706212322,2054.0
10.732472887,1997.0
10.758733452,1999.0
10.784994017,1902.0
10.811254582,1889.0
10.837515147,1892.0
10.863775712,1909.0
10.890036277,1981.0
10.916296842,1888.0
10.942557407,1840.0
10.968817972,1859.0
10.995078537,1876.0
11.021339102,1862.0
11.047599667,1803.0
11.073860232,1818.0
11.100120797,1837.0
11.126381362,1824.0
11.152641927,1801.0
11.178902492,1808.0
11.205163057,1804.0
11.231423622,1818.0
11.257684187,1749.0
11.283944752,1728.0
11.310205317,1749.0
11.336465882,1813.0
11.362726447,1759.0
11.388987012,1732.0
11.415247577,1705.0
11.441508142,1705.0
11.467768707,1699.0
11.494029272,1725.0
11.520289837,1732.0
11.546550402,1696.0
11.572810967,1713.0
11.599071532,1703.0
11.625332097,1611.0
11.651592662,1601.0
11.677853227,1721.0
11.704113792,1573.0
11.730374357,1638.0
11.756634922,1597.0
11.782895487,1603.0
11.809156052,1566.0
11.835416617,1631.0
11.861677182,1722.0
11.887937747,1754.0
11.914198312,1571.0
11.940458877,1635.0
11.966719442,1547.0
11.992980007,1537.0
12.019240572,1584.0
12.045501137,1554.0
12.071761702,1568.0
12.098022267,1599.0
12.124282832,1647.0
12.150543397,1546.0
12.176803962,1610.0
12.203064527,1559.0
12.229325092,1591.0
12.255585657,1558.0
12.281846222,1526.0
12.308106787,1538.0
12.334367352,1458.0
12.360627917,1542.0
12.386888482,1545.0
12.413149047,1524.0
12.439409612,1459.0
12.465670177,1515.0
12.491930742,1472.0
12.518191307,1497.0
12.544451872,1438.0
12.570712437,1497.0
12.596973002,1537.0
12.623233567,1474.0
12.649494132,1504.0
12.675754697,1471.0
12.702015262,1484.0
12.728275827,1495.0
12.754536392,1453.0
12.780796957,1554.0
12.807057522,1505.0
12.833318087,1507.0
12.859578652,1466.0
12.885839217,1504.0
12.912099782,1522.0
12.938360347,1450.0
12.964620912,1496.0
12.990881477,1540.0
13.017142042,1410.0
13.043402607,1468.0
13.069663172,1458.0
13.095923737,1432.0
13.122184302,1465.0
13.148444867,1456.0
13.174705432,1491.0
13.200965997,1481.0
13.227226562,1382.0
13.253487127,1409.0
13.279747692,1436.0
13.306008257,1378.0
13.332268822,1488.0
13.358529387,1440.0
13.384789952,1406.0
13.411050517,1398.0
13.437311082,1429.0
13.463571647,1391.0
13.489832212,1412.0
13.516092777,1413.0
13.542353343,1457.0
13.568613908,1439.0
13.594874473,1406.0
13.621135038,1387.0
13.647395603,1430.0
13.673656168,1474.0
13.699916733,1390.0
13.726177298,1467.0
13.752437863,1473.0
13.778698428,1502.0
13.804958993,1334.0
13.831219558,1349.0
13.857480123,1388.0
13.883740688,1440.0
13.910001253,1383.0
13.936261818,1407.0
13.962522383,1390.0
13.988782948,1307.0
14.015043513,1382.0
14.041304078,1407.0
14.067564643,1318.0
14.093825208,1372.0
14.120085773,1325.0
14.146346338,1359.0
14.172606903,1390.0
14.198867468,1322.0
14.225128033,1367.0
14.251388598,1381.0
14.277649163,1368.0
14.303909728,1352.0
14.330170293,1343.0
14.356430858,1329.0
14.382691423,1400.0
14.408951988,1422.0
14.435212553,1307.0
14.461473118,1364.0
14.487733683,1367.0
14.513994248,1374.0
14.540254813,1274.0
14.566515378,1371.0
14.592775943,1288.0
14.619036508,1358.0
14.645297073,1291.0
14.671557638,1275.0
14.697818203,1397.0
14.724078768,1350.0
14.750339333,1331.0
14.776599898,1301.0
14.802860463,1339.0
14.829121028,1313.0
14.855381593,1349.0
14.881642158,1322.0
14.907902723,1228.0
14.934163288,1348.0
14.960423853,1372.0
14.986684418,1284.0
15.012944983,1365.0
15.039205548,1300.0
15.065466113,1232.0
15.091726678,1354.0
15.117987243,1330.0
15.144247808,1300.0
15.170508373,1296.0
15.196768938,1242.0
15.223029503,1288.0
15.249290068,1338.0
15.275550633,1274.0
15.301811198,1320.0
15.328071763,1245.0
15.354332328,1249.0
15.380592893,1259.0
15.406853458,1259.0
15.433114023,1313.0
15.459374588,1210.0
15.485635153,1207.0
15.511895718,1207.0
15.538156283,1239.0
15.564416848,1270.0
15.590677413,1250.0
15.616937978,1226.0
15.643198543,1217.0
15.669459108,1226.0
15.695719673,1226.0
15.721980238,1223.0
15.748240803,1280.0
15.774501368,1163.0
15.800761933,1247.0
15.827022498,1255.0
15.853283063,1149.0
15.879543628,1282.0
15.905804193,1192.0
15.932064758,1198.0
15.958325323,1284.0
15.984585888,1173.0
16.010846453,1207.0
16.037107018,1214.0
16.063367583,1213.0
16.089628148,1203.0
16.115888713,1206.0
16.142149278,1252.0
16.168409843,1130.0
16.194670408,1200.0
16.220930973,1251.0
16.247191538,1168.0
16.273452103,1142.0
16.299712668,1266.0
16.325973233,1184.0
16.352233798,1218.0
16.378494363,1204.0
16.404754928,1229.0
16.431015493,1214.0
16.457276058,1146.0
16.483536623,1208.0
16.509797188,1207.0
16.536057753,1171.0
16.562318318,1165.0
16.588578883,1229.0
16.614839448,1141.0
16.641100013,1175.0
16.667360578,1217.0
16.693621143,1157.0
16.719881708,1179.0
16.746142273,1148.0
16.772402838,1116.0
16.798663403,1226.0
16.824923968,1105.0
16.851184533,1205.0
16.877445098,1162.0
16.903705663,1126.0
16.929966229,1130.0
16.956226794,1162.0
16.982487359,1202.0
17.008747924,1125.0
17.035008489,1136.0
17.061269054,1173.0
17.087529619,1123.0
17.113790184,1170.0
17.140050749,1153.0
17.166311314,1125.0
17.192571879,1182.0
17.218832444,1135.0
17.245093009,1181.0
17.271353574,1108.0
17.297614139,1057.0
17.323874704,1103.0
17.350135269,1146.0
17.376395834,1184.0
17.402656399,1140.0
17.428916964,1114.0
17.455177529,1136.0
17.481438094,1131.0
17.507698659,1176.0
17.533959224,1149.0
17.560219789,1158.0
17.586480354,1188.0
17.612740919,1124.0
17.639001484,1112.0
17.665262049,1143.0
17.691522614,1207.0
17.717783179,1199.0
17.744043744,1092.0
17.770304309,1171.0
17.796564874,1161.0
17.822825439,1201.0
17.849086004,1110.0
17.875346569,1166.0
17.901607134,1128.0
17.927867699,1114.0
17.954128264,1080.0
17.980388829,1130.0
18.006649394,1192.0
18.032909959,1073.0
18.059170524,1079.0
18.085431089,1109.0
18.111691654,1141.0
18.137952219,1168.0
18.164212784,1125.0
18.190473349,1202.0
18.216733914,1141.0
18.242994479,1055.0
18.269255044,1121.0
18.295515609,1122.0
18.321776174,1072.0
18.348036739,1125.0
18.374297304,1108.0
18.400557869,1115.0
18.426818434,1116.0
18.453078999,1089.0
18.479339564,1121.0
18.505600129,1087.0
18.531860694,1128.0
18.558121259,1122.0
18.584381824,1124.0
18.610642389,1068.0
18.636902954,1088.0
18.663163519,1121.0
18.689424084,1111.0
18.715684649,1172.0
18.741945214,1109.0
18.768205779,1118.0
18.794466344,1090.0
18.820726909,1102.0
18.846987474,1159.0
18.873248039,1146.0
18.899508604,1145.0
18.925769169,1118.0
18.952029734,1106.0
18.978290299,1129.0
19.004550864,1079.0
19.030811429,1148.0
19.057071994,1058.0
19.083332559,1047.0
19.109593124,1071.0
19.135853689,1171.0
19.162114254,1085.0
19.188374819,1109.0
19.214635384,1090.0
19.240895949,1141.0
19.267156514,1139.0
19.293417079,1143.0
19.319677644,1079.0
19.345938209,1048.0
19.372198774,1082.0
19.398459339,1126.0
19.424719904,1124.0
19.450980469,1113.0
19.477241034,1172.0
19.503501599,1089.0
19.529762164,1084.0
19.556022729,1094.0
19.582283294,1171.0
19.608543859,1079.0
19.634804424,1112.0
19.661064989,1069.0
19.687325554,1119.0
19.713586119,1117.0
19.739846684,1064.0
19.766107249,1111.0
19.792367814,1124.0
19.818628379,1114.0
19.844888944,1109.0
19.871149509,1124.0
19.897410074,1099.0
19.923670639,1100.0
19.949931204,1147.0
19.976191769,1052.0
20.002452334,1098.0
20.028712899,1124.0
20.054973464,1054.0
20.081234029,1131.0
20.107494594,1090.0
20.133755159,1108.0
20.160015724,1186.0
20.186276289,1111.0
20.212536854,1122.0
20.238797419,1119.0
20.265057984,1009.0
20.291318549,1053.0
20.317579114,1055.0
20.343839680,1094.0
20.370100245,1109.0
20.396360810,1051.0
20.422621375,1057.0
20.448881940,1183.0
20.475142505,1021.0
20.501403070,1199.0
20.527663635,1140.0
20.553924200,1151.0
20.580184765,1111.0
20.606445330,1045.0
20.632705895,1145.0
20.658966460,1090.0
20.685227025,1098.0
20.711487590,1089.0
20.737748155,1106.0
20.764008720,1063.0
20.790269285,1142.0
20.816529850,1123.0
20.842790415,1069.0
20.869050980,1144.0
20.895311545,1072.0
20.921572110,1072.0
20.947832675,1087.0
20.974093240,1120.0
21.000353805,1135.0
21.026614370,1047.0
21.052874935,1098.0
21.079135500,1093.0
21.105396065,1118.0
21.131656630,1087.0
21.157917195,1121.0
21.184177760,1083.0
21.210438325,1064.0
21.236698890,1070.0
21.262959455,1065.0
21.289220020,1090.0
21.315480585,1074.0
21.341741150,1072.0
21.368001715,1136.0
21.394262280,1077.0
21.420522845,1117.0
21.446783410,1128.0
21.473043975,1086.0
21.499304540,1069.0
21.525565105,1028.0
21.551825670,1076.0
21.578086235,1088.0
21.604346800,1129.0
21.630607365,1067.0
21.656867930,1002.0
21.683128495,1116.0
21.709389060,1088.0
21.735649625,1090.0
21.761910190,1060.0
21.788170755,1073.0
21.814431320,1063.0
21.840691885,1108.0
21.866952450,1115.0
21.893213015,1022.0
21.919473580,1119.0
21.945734145,1114.0
21.971994710,1119.0
21.998255275,1052.0
22.024515840,1096.0
22.050776405,1085.0
22.077036970,1018.0
22.103297535,1088.0
22.129558100,1087.0
22.155818665,1055.0
22.182079230,1074.0
22.208339795,1096.0
22.234600360,1076.0
22.260860925,1104.0
22.287121490,1088.0
22.313382055,1118.0
22.339642620,1044.0
22.365903185,1097.0
22.392163750,1114.0
22.418424315,1094.0
22.444684880,1073.0
22.470945445,1149.0
22.497206010,1053.0
22.523466575,1058.0
22.549727140,1072.0
22.575987705,1066.0
22.602248270,1043.0
22.628508835,1066.0
22.654769400,1064.0
22.681029965,1096.0
22.707290530,1097.0
22.733551095,1068.0
22.759811660,1054.0
22.786072225,1047.0
22.812332790,1004.0
22.838593355,1065.0
22.864853920,1070.0
22.891114485,1062.0
22.917375050,1089.0
22.943635615,1109.0
22.969896180,1043.0
22.996156745,1092.0
23.022417310,1040.0
23.048677875,1079.0
23.074938440,1030.0
23.101199005,1083.0
23.127459570,1049.0
23.153720135,1045.0
23.179980700,1115.0
23.206241265,1089.0
23.232501830,1097.0
23.258762395,1103.0
23.285022960,1011.0
23.311283525,1069.0
23.337544090,1063.0
23.363804655,1066.0
23.390065220,1105.0
23.416325785,995.0
23.442586350,1143.0
23.468846915,1074.0
23.495107480,1097.0
23.521368045,1091.0
23.547628610,1057.0
23.573889175,1043.0
23.600149740,1040.0
23.626410305,1024.0
23.652670870,1094.0
23.678931435,1116.0
23.705192000,1045.0
23.731452566,1029.0
23.757713131,1173.0
23.783973696,1043.0
23.810234261,1082.0
23.836494826,1094.0
23.862755391,1102.0
23.889015956,1048.0
23.915276521,1118.0
23.941537086,1170.0
23.967797651,1091.0
23.994058216,1062.0
24.020318781,1112.0
24.046579346,1080.0
24.072839911,1038.0
24.099100476,1052.0
24.125361041,994.0
24.151621606,1133.0
24.177882171,1036.0
24.204142736,1098.0
24.230403301,1047.0
24.256663866,1036.0
24.282924431,1043.0
24.309184996,1047.0
24.335445561,1154.0
24.361706126,1092.0
24.387966691,1118.0
24.414227256,1142.0
24.440487821,1086.0
24.466748386,1084.0
24.493008951,1032.0
24.519269516,1062.0
24.545530081,1089.0
24.571790646,1057.0
24.598051211,1110.0
24.624311776,1079.0
24.650572341,1035.0
24.676832906,1137.0
24.703093471,1039.0
24.729354036,1071.0
24.755614601,1084.0
24.781875166,1043.0
24.808135731,1078.0
24.834396296,1011.0
24.860656861,1088.0
24.886917426,1054.0
24.913177991,1055.0
24.939438556,1073.0
24.965699121,1072.0
24.991959686,1101.0
25.018220251,1048.0
25.044480816,1021.0
25.070741381,1016.0
25.097001946,1045.0
25.123262511,1156.0
25.149523076,1058.0
25.175783641,1093.0
25.202044206,1053.0
25.228304771,1046.0
25.254565336,1092.0
25.280825901,1022.0
25.307086466,1044.0
25.333347031,993.0
25.359607596,1077.0
25.385868161,1069.0
25.412128726,999.0
25.438389291,1059.0
25.464649856,1031.0
25.490910421,1015.0
25.517170986,1082.0
25.543431551,1018.0
25.569692116,1043.0
25.595952681,1039.0
25.622213246,1000.0
25.648473811,1047.0
25.674734376,1001.0
25.700994941,1024.0
25.727255506,1075.0
25.753516071,1022.0
25.779776636,1072.0
25.806037201,1026.0
25.832297766,1043.0
25.858558331,1047.0
25.884818896,1040.0
25.911079461,1050.0
25.937340026,1043.0
25.963600591,1007.0
25.989861156,998.0
26.016121721,1068.0
26.042382286,1014.0
26.068642851,1043.0
26.094903416,1000.0
26.121163981,1069.0
26.147424546,1077.0
26.173685111,1063.0
26.199945676,1082.0
26.226206241,1037.0
26.252466806,984.0
26.278727371,1007.0
26.304987936,1042.0
26.331248501,1037.0
26.357509066,1067.0
26.383769631,1060.0
26.410030196,984.0
26.436290761,1136.0
26.462551326,1072.0
26.488811891,1092.0
26.515072456,1146.0
26.541333021,1040.0
26.567593586,1072.0
26.593854151,1117.0
26.620114716,1046.0
26.646375281,1098.0
26.672635846,1056.0
26.698896411,1008.0
26.725156976,1037.0
26.751417541,1009.0
26.777678106,1030.0
26.803938671,987.0
26.830199236,1016.0
26.856459801,1026.0
26.882720366,1092.0
26.908980931,1035.0
26.935241496,1028.0
26.961502061,1043.0
26.987762626,1093.0
27.014023191,1014.0
27.040283756,1110.0
27.066544321,993.0
27.092804886,1072.0
27.119065451,1003.0
27.145326017,1020.0
27.171586582,1016.0
27.197847147,982.0
27.224107712,979.0
27.250368277,1068.0
27.276628842,1036.0
27.302889407,981.0
27.329149972,985.0
27.355410537,941.0
27.381671102,1022.0
27.407931667,971.0
27.434192232,1026.0
27.460452797,1018.0
27.486713362,1021.0
27.512973927,1050.0
27.539234492,1035.0
27.565495057,1009.0
27.591755622,1049.0
27.618016187,1014.0
27.644276752,992.0
27.670537317,966.0
27.696797882,1055.0
27.723058447,1002.0
27.749319012,1033.0
27.775579577,1070.0
27.801840142,984.0
27.828100707,1024.0
27.854361272,972.0
27.880621837,1001.0
27.906882402,1047.0
27.933142967,1022.0
27.959403532,1058.0
27.985664097,1036.0
28.011924662,1028.0
28.038185227,956.0
28.064445792,1003.0
28.090706357,1018.0
28.116966922,1012.0
28.143227487,978.0
28.169488052,969.0
28.195748617,1020.0
28.222009182,1003.0
28.248269747,1039.0
28.274530312,987.0
28.300790877,1025.0
28.327051442,1003.0
28.353312007,977.0
28.379572572,968.0
28.405833137,1033.0
28.432093702,1049.0
28.458354267,992.0
28.484614832,1013.0
28.510875397,1002.0
28.537135962,1006.0
28.563396527,1023.0
28.589657092,1028.0
28.615917657,1004.0
28.642178222,975.0
28.668438787,959.0
28.694699352,998.0
28.720959917,938.0
28.747220482,1039.0
28.773481047,981.0
28.799741612,983.0
28.826002177,938.0
28.852262742,956.0
28.878523307,938.0
28.904783872,989.0
28.931044437,1043.0
28.957305002,1048.0
28.983565567,1023.0
29.009826132,978.0
29.036086697,981.0
29.062347262,1005.0
29.088607827,1055.0
29.114868392,1009.0
29.141128957,1011.0
29.167389522,1017.0
29.193650087,988.0
29.219910652,930.0
29.246171217,1029.0
29.272431782,936.0
29.298692347,1020.0
29.324952912,931.0
29.351213477,936.0
29.377474042,1018.0
29.403734607,1020.0
29.429995172,1007.0
29.456255737,993.0
29.482516302,977.0
29.508776867,1009.0
29.535037432,981.0
29.561297997,942.0
29.587558562,988.0
29.613819127,991.0
29.640079692,926.0
29.666340257,988.0
29.692600822,984.0
29.718861387,994.0
29.745121952,965.0
29.771382517,1001.0
29.797643082,975.0
29.823903647,996.0
29.850164212,978.0
29.876424777,954.0
29.902685342,985.0
29.928945907,962.0
29.955206472,997.0
29.981467037,990.0
30.007727602,930.0
30.033988167,989.0
30.060248732,959.0
30.086509297,962.0
30.112769862,944.0
30.139030427,987.0
30.165290992,912.0
30.191551557,926.0
30.217812122,941.0
30.244072687,943.0
30.270333252,990.0
30.296593817,892.0
30.322854382,1003.0
30.349114947,999.0
30.375375512,918.0
30.401636077,998.0
30.427896642,1018.0
30.454157207,954.0
30.480417772,934.0
30.506678337,1015.0
30.532938903,1009.0
30.559199468,1007.0
30.585460033,922.0
30.611720598,930.0
30.637981163,1016.0
30.664241728,921.0
30.690502293,924.0
30.716762858,996.0
30.743023423,997.0
30.769283988,1001.0
30.795544553,938.0
30.821805118,873.0
30.848065683,989.0
30.874326248,968.0
30.900586813,949.0
30.926847378,949.0
30.953107943,1024.0
30.979368508,950.0
31.005629073,977.0
31.031889638,922.0
31.058150203,986.0
31.084410768,964.0
31.110671333,954.0
31.136931898,876.0
31.163192463,964.0
31.189453028,959.0
31.215713593,946.0
31.241974158,957.0
31.268234723,927.0
31.294495288,952.0
31.320755853,959.0
31.347016418,919.0
31.373276983,916.0
31.399537548,858.0
31.425798113,916.0
31.452058678,902.0
31.478319243,900.0
31.504579808,905.0
31.530840373,870.0
31.557100938,916.0
31.583361503,887.0
31.609622068,924.0
31.635882633,890.0
31.662143198,892.0
31.688403763,926.0
31.714664328,884.0
31.740924893,953.0
31.767185458,916.0
31.793446023,1013.0
31.819706588,960.0
31.845967153,957.0
31.872227718,911.0
31.898488283,905.0
31.924748848,962.0
31.951009413,919.0
31.977269978,976.0
32.003530543,860.0
32.029791108,901.0
32.056051673,956.0
32.082312238,918.0
32.108572803,899.0
32.134833368,899.0
32.161093933,905.0
32.187354498,919.0
32.213615063,869.0
32.239875628,898.0
32.266136193,878.0
32.292396758,892.0
32.318657323,923.0
32.344917888,971.0
32.371178453,878.0
32.397439018,868.0
32.423699583,901.0
32.449960148,870.0
32.476220713,973.0
32.502481278,919.0
32.528741843,926.0
32.555002408,906.0
32.581262973,904.0
32.607523538,894.0
32.633784103,919.0
32.660044668,899.0
32.686305233,915.0
32.712565798,915.0
32.738826363,907.0
32.765086928,875.0
32.791347493,822.0
32.817608058,893.0
32.843868623,872.0
32.870129188,842.0
32.896389753,898.0
32.922650318,851.0
32.948910883,879.0
32.975171448,888.0
33.001432013,879.0
33.027692578,852.0
33.053953143,902.0
33.080213708,833.0
33.106474273,861.0
33.132734838,879.0
33.158995403,865.0
33.185255968,848.0
33.211516533,881.0
33.237777098,850.0
33.264037663,855.0
33.290298228,844.0
33.316558793,761.0
33.342819358,887.0
33.369079923,885.0
33.395340488,877.0
33.421601053,908.0
33.447861618,899.0
33.474122183,870.0
33.500382748,843.0
33.526643313,919.0
33.552903878,833.0
33.579164443,862.0
33.605425008,878.0
33.631685573,831.0
33.657946138,836.0
33.684206703,819.0
33.710467268,784.0
33.736727833,829.0
33.762988398,823.0
33.789248963,892.0
33.815509528,830.0
33.841770093,808.0
33.868030658,845.0
33.894291223,866.0
33.920551789,874.0
33.946812354,823.0
33.973072919,815.0
33.999333484,810.0
34.025594049,831.0
34.051854614,877.0
34.078115179,837.0
34.104375744,855.0
34.130636309,861.0
34.156896874,899.0
34.183157439,823.0
34.209418004,868.0
34.235678569,791.0
34.261939134,899.0
34.288199699,815.0
34.314460264,792.0
34.340720829,841.0
34.366981394,837.0
34.393241959,810.0
34.419502524,812.0
34.445763089,843.0
34.472023654,806.0
34.498284219,812.0
34.524544784,884.0
34.550805349,797.0
34.577065914,867.0
34.603326479,829.0
34.629587044,794.0
34.655847609,801.0
34.682108174,847.0
34.708368739,811.0
34.734629304,853.0
34.760889869,792.0
34.787150434,847.0
34.813410999,818.0
34.839671564,800.0
34.865932129,872.0
34.892192694,837.0
34.918453259,856.0
34.944713824,818.0
34.970974389,801.0
34.997234954,761.0
35.023495519,835.0
35.049756084,781.0
35.076016649,845.0
35.102277214,765.0
35.128537779,726.0
35.154798344,812.0
35.181058909,807.0
35.207319474,833.0
35.233580039,819.0
35.259840604,800.0
35.286101169,797.0
35.312361734,817.0
35.338622299,816.0
35.364882864,803.0
35.391143429,835.0
35.417403994,796.0
35.443664559,797.0
35.469925124,744.0
35.496185689,820.0
35.522446254,744.0
35.548706819,772.0
35.574967384,845.0
35.601227949,788.0
35.627488514,766.0
35.653749079,772.0
35.680009644,820.0
35.706270209,813.0
35.732530774,784.0
35.758791339,765.0
35.785051904,774.0
35.811312469,773.0
35.837573034,793.0
35.863833599,788.0
35.890094164,739.0
35.916354729,796.0
35.942615294,798.0
35.968875859,785.0
35.995136424,820.0
36.021396989,747.0
36.047657554,731.0
36.073918119,817.0
36.100178684,785.0
36.126439249,788.0
36.152699814,731.0
36.178960379,751.0
36.205220944,737.0
36.231481509,773.0
36.257742074,778.0
36.284002639,793.0
36.310263204,730.0
36.336523769,826.0
36.362784334,765.0
36.389044899,757.0
36.415305464,708.0
36.441566029,794.0
36.467826594,741.0
36.494087159,812.0
36.520347724,770.0
36.546608289,750.0
36.572868854,744.0
36.599129419,770.0
36.625389984,770.0
36.651650549,684.0
36.677911114,758.0
36.704171679,760.0
36.730432244,750.0
36.756692809,699.0
36.782953374,707.0
36.809213939,728.0
36.835474504,730.0
36.861735069,699.0
36.887995634,734.0
36.914256199,717.0
36.940516764,755.0
36.966777329,747.0
36.993037894,742.0
37.019298459,739.0
37.045559024,766.0
37.071819589,760.0
37.098080154,729.0
37.124340719,768.0
37.150601284,717.0
37.176861849,726.0
37.203122414,766.0
37.229382979,726.0
37.255643544,739.0
37.281904109,729.0
37.308164674,740.0
37.334425240,711.0
37.360685805,726.0
37.386946370,728.0
37.413206935,722.0
37.439467500,741.0
37.465728065,677.0
37.491988630,698.0
37.518249195,664.0
37.544509760,698.0
37.570770325,764.0
37.597030890,736.0
37.623291455,693.0
37.649552020,706.0
37.675812585,723.0
37.702073150,686.0
37.728333715,761.0
37.754594280,732.0
37.780854845,733.0
37.807115410,708.0
37.833375975,701.0
37.859636540,701.0
37.885897105,749.0
37.912157670,722.0
37.938418235,682.0
37.964678800,716.0
37.990939365,638.0
38.017199930,721.0
38.043460495,694.0
38.069721060,736.0
38.095981625,704.0
38.122242190,676.0
38.148502755,729.0
38.174763320,665.0
38.201023885,682.0
38.227284450,650.0
38.253545015,682.0
38.279805580,719.0
38.306066145,748.0
38.332326710,714.0
38.358587275,707.0
38.384847840,723.0
38.411108405,677.0
38.437368970,654.0
38.463629535,769.0
38.489890100,712.0
38.516150665,623.0
38.542411230,626.0
38.568671795,646.0
38.594932360,692.0
38.621192925,717.0
38.647453490,692.0
38.673714055,714.0
38.699974620,670.0
38.726235185,653.0
38.752495750,671.0
38.778756315,673.0
38.805016880,720.0
38.831277445,715.0
38.857538010,655.0
38.883798575,671.0
38.910059140,687.0
38.936319705,684.0
38.962580270,683.0
38.988840835,683.0
39.015101400,683.0
39.041361965,697.0
39.067622530,664.0
39.093883095,683.0
39.120143660,725.0
39.146404225,734.0
39.172664790,734.0
39.198925355,663.0
39.225185920,716.0
39.251446485,687.0
39.277707050,704.0
39.303967615,644.0
39.330228180,641.0
39.356488745,700.0
39.382749310,698.0
39.409009875,738.0
39.435270440,705.0
39.461531005,701.0
39.487791570,723.0
39.514052135,673.0
39.540312700,679.0
39.566573265,658.0
39.592833830,688.0
39.619094395,703.0
39.645354960,737.0
39.671615525,686.0
39.697876090,725.0
39.724136655,703.0
39.750397220,688.0
39.776657785,703.0
39.802918350,745.0
39.829178915,687.0
39.855439480,648.0
39.881700045,684.0
39.907960610,688.0
39.934221175,749.0
39.960481740,770.0
39.986742305,696.0
40.013002870,757.0
40.039263435,680.0
40.065524000,688.0
40.091784565,705.0
40.118045130,722.0
40.144305695,669.0
40.170566260,744.0
40.196826825,690.0
40.223087390,774.0
40.249347955,757.0
40.275608520,725.0
40.301869085,718.0
40.328129650,742.0
40.354390215,689.0
40.380650780,689.0
40.406911345,682.0
40.433171910,766.0
40.459432475,712.0
40.485693040,716.0
40.511953605,712.0
40.538214170,733.0
40.564474735,740.0
40.590735300,802.0
40.616995865,708.0
40.643256430,737.0
40.669516995,761.0
40.695777560,743.0
40.722038126,708.0
40.748298691,668.0
40.774559256,776.0
40.800819821,761.0
40.827080386,753.0
40.853340951,774.0
40.879601516,706.0
40.905862081,723.0
40.932122646,758.0
40.958383211,751.0
40.984643776,747.0
41.010904341,689.0
41.037164906,726.0
41.063425471,741.0
41.089686036,740.0
41.115946601,757.0
41.142207166,781.0
41.168467731,725.0
41.194728296,747.0
41.220988861,775.0
41.247249426,707.0
41.273509991,755.0
41.299770556,723.0
41.326031121,715.0
41.352291686,720.0
41.378552251,678.0
41.404812816,731.0
41.431073381,708.0
41.457333946,782.0
41.483594511,733.0
41.509855076,724.0
41.536115641,760.0
41.562376206,711.0
41.588636771,792.0
41.614897336,728.0
41.641157901,747.0
41.667418466,770.0
41.693679031,747.0
41.719939596,687.0
41.746200161,733.0
41.772460726,736.0
41.798721291,744.0
41.824981856,766.0
41.851242421,771.0
41.877502986,771.0
41.903763551,711.0
41.930024116,728.0
41.956284681,747.0
41.982545246,690.0
42.008805811,775.0
42.035066376,754.0
42.061326941,760.0
42.087587506,766.0
42.113848071,753.0
42.140108636,725.0
42.166369201,764.0
42.192629766,710.0
42.218890331,726.0
42.245150896,770.0
42.271411461,727.0
42.297672026,710.0
42.323932591,779.0
42.350193156,749.0
42.376453721,759.0
42.402714286,732.0
42.428974851,790.0
42.455235416,770.0
42.481495981,785.0
42.507756546,757.0
42.534017111,775.0
42.560277676,724.0
42.586538241,738.0
42.612798806,686.0
42.639059371,771.0
42.665319936,744.0
42.691580501,753.0
42.717841066,753.0
42.744101631,709.0
42.770362196,668.0
42.796622761,704.0
42.822883326,727.0
42.849143891,700.0
42.875404456,762.0
42.901665021,696.0
42.927925586,731.0
42.954186151,700.0
42.980446716,718.0
43.006707281,730.0
43.032967846,708.0
43.059228411,684.0
43.085488976,754.0
43.111749541,703.0
43.138010106,661.0
43.164270671,723.0
43.190531236,677.0
43.216791801,706.0
43.243052366,662.0
43.269312931,676.0
43.295573496,704.0
43.321834061,678.0
43.348094626,641.0
43.374355191,667.0
43.400615756,664.0
43.426876321,653.0
43.453136886,700.0
43.479397451,636.0
43.505658016,627.0
43.531918581,606.0
43.558179146,673.0
43.584439711,676.0
43.610700276,666.0
43.636960841,648.0
43.663221406,663.0
43.689481971,608.0
43.715742536,653.0
43.742003101,681.0
43.768263666,629.0
43.794524231,609.0
43.820784796,618.0
43.847045361,635.0
43.873305926,657.0
43.899566491,619.0
43.925827056,584.0
43.952087621,632.0
43.978348186,584.0
44.004608751,609.0
44.030869316,558.0
44.057129881,601.0
44.083390446,632.0
44.109651011,638.0
44.135911577,585.0
44.162172142,578.0
44.188432707,587.0
44.214693272,614.0
44.240953837,551.0
44.267214402,604.0
44.293474967,638.0
44.319735532,567.0
44.345996097,583.0
44.372256662,593.0
44.398517227,567.0
44.424777792,566.0
44.451038357,612.0
44.477298922,592.0
44.503559487,598.0
44.529820052,597.0
44.556080617,554.0
44.582341182,532.0
44.608601747,537.0
44.634862312,563.0
44.661122877,554.0
44.687383442,581.0
44.713644007,581.0
44.739904572,569.0
44.766165137,581.0
44.792425702,572.0
44.818686267,548.0
44.844946832,560.0
44.871207397,558.0
44.897467962,592.0
44.923728527,608.0
44.949989092,560.0
44.976249657,525.0
45.002510222,538.0
45.028770787,548.0
45.055031352,618.0
45.081291917,554.0
45.107552482,552.0
45.133813047,536.0
45.160073612,549.0
45.186334177,511.0
45.212594742,566.0
45.238855307,552.0
45.265115872,539.0
45.291376437,521.0
45.317637002,559.0
45.343897567,573.0
45.370158132,584.0
45.396418697,567.0
45.422679262,514.0
45.448939827,571.0
45.475200392,535.0
45.501460957,525.0
45.527721522,536.0
45.553982087,542.0
45.580242652,538.0
45.606503217,522.0
45.632763782,577.0
45.659024347,569.0
45.685284912,518.0
45.711545477,545.0
45.737806042,481.0
45.764066607,559.0
45.790327172,593.0
45.816587737,519.0
45.842848302,548.0
45.869108867,530.0
45.895369432,539.0
45.921629997,517.0
45.947890562,513.0
45.974151127,496.0
46.000411692,505.0
46.026672257,552.0
46.052932822,522.0
46.079193387,522.0
46.105453952,497.0
46.131714517,510.0
46.157975082,510.0
46.184235647,531.0
46.210496212,496.0
46.236756777,536.0
46.263017342,492.0
46.289277907,526.0
46.315538472,534.0
46.341799037,514.0
46.368059602,507.0
46.394320167,538.0
46.420580732,450.0
46.446841297,527.0
46.473101862,536.0
46.499362427,460.0
46.525622992,560.0
46.551883557,495.0
46.578144122,480.0
46.604404687,510.0
46.630665252,467.0
46.656925817,485.0
46.683186382,510.0
46.709446947,503.0
46.735707512,487.0
46.761968077,455.0
46.788228642,477.0
46.814489207,469.0
46.840749772,504.0
46.867010337,501.0
46.893270902,498.0
46.919531467,548.0
46.945792032,472.0
46.972052597,441.0
46.998313162,499.0
47.024573727,485.0
47.050834292,461.0
47.077094857,458.0
47.103355422,483.0
47.129615987,477.0
47.155876552,445.0
47.182137117,483.0
47.208397682,464.0
47.234658247,514.0
47.260918812,477.0
47.287179377,461.0
47.313439942,466.0
47.339700507,441.0
47.365961072,507.0
47.392221637,491.0
47.418482202,475.0
47.444742767,538.0
47.471003332,484.0
47.497263897,487.0
47.523524463,482.0
47.549785028,530.0
47.576045593,462.0
47.602306158,496.0
47.628566723,437.0
47.654827288,470.0
47.681087853,485.0
47.707348418,446.0
47.733608983,452.0
47.759869548,449.0
47.786130113,491.0
47.812390678,459.0
47.838651243,470.0
47.864911808,501.0
47.891172373,515.0
47.917432938,474.0
47.943693503,426.0
47.969954068,454.0
47.996214633,469.0
48.022475198,462.0
48.048735763,467.0
48.074996328,445.0
48.101256893,491.0
48.127517458,497.0
48.153778023,465.0
48.180038588,472.0
48.206299153,474.0
48.232559718,428.0
48.258820283,454.0
48.285080848,427.0
48.311341413,446.0
48.337601978,428.0
48.363862543,411.0
48.390123108,449.0
48.416383673,452.0
48.442644238,480.0
48.468904803,457.0
48.495165368,452.0
48.521425933,437.0
48.547686498,423.0
48.573947063,442.0
48.600207628,452.0
48.626468193,477.0
48.652728758,484.0
48.678989323,438.0
48.705249888,435.0
48.731510453,448.0
48.757771018,455.0
48.784031583,474.0
48.810292148,450.0
48.836552713,450.0
48.862813278,476.0
48.889073843,441.0
48.915334408,461.0
48.941594973,438.0
48.967855538,488.0
48.994116103,456.0
49.020376668,432.0
49.046637233,463.0
49.072897798,436.0
49.099158363,424.0
49.125418928,469.0
49.151679493,466.0
49.177940058,419.0
49.204200623,432.0
49.230461188,432.0
49.256721753,427.0
49.282982318,443.0
49.309242883,446.0
49.335503448,425.0
49.361764013,409.0
49.388024578,420.0
49.414285143,469.0
49.440545708,463.0
49.466806273,425.0
49.493066838,432.0
49.519327403,430.0
49.545587968,453.0
49.571848533,470.0
49.598109098,472.0
49.624369663,449.0
49.650630228,411.0
49.676890793,458.0
49.703151358,414.0
49.729411923,403.0
49.755672488,445.0
49.781933053,425.0
49.808193618,448.0
49.834454183,408.0
49.860714748,395.0
49.886975313,469.0
49.913235878,472.0
49.939496443,451.0
49.965757008,438.0
49.992017573,429.0
50.018278138,441.0
50.044538703,414.0
50.070799268,474.0
50.097059833,452.0
50.123320398,462.0
50.149580963,409.0
50.175841528,442.0
50.202102093,437.0
50.228362658,442.0
50.254623223,441.0
50.280883788,430.0
50.307144353,434.0
50.333404918,442.0
50.359665483,450.0
50.385926048,392.0
50.412186613,429.0
50.438447178,383.0
50.464707743,405.0
50.490968308,396.0
50.517228873,373.0
50.543489438,413.0
50.569750003,416.0
50.596010568,400.0
50.622271133,431.0
50.648531698,391.0
50.674792263,408.0
50.701052828,412.0
50.727313393,429.0
50.753573958,416.0
50.779834523,429.0
50.806095088,389.0
50.832355653,416.0
50.858616218,412.0
50.884876783,436.0
50.911137349,410.0
50.937397914,420.0
50.963658479,410.0
50.989919044,428.0
51.016179609,422.0
51.042440174,428.0
51.068700739,405.0
51.094961304,379.0
51.121221869,406.0
51.147482434,383.0
51.173742999,426.0
51.200003564,389.0
51.226264129,405.0
51.252524694,413.0
51.278785259,448.0
51.305045824,414.0
51.331306389,392.0
51.357566954,433.0
51.383827519,381.0
51.410088084,419.0
51.436348649,420.0
51.462609214,432.0
51.488869779,395.0
51.515130344,426.0
51.541390909,427.0
51.567651474,410.0
51.593912039,402.0
51.620172604,414.0
51.646433169,425.0
51.672693734,400.0
51.698954299,385.0
51.725214864,401.0
51.751475429,391.0
51.777735994,386.0
51.803996559,370.0
51.830257124,378.0
51.856517689,389.0
51.882778254,413.0
51.909038819,397.0
51.935299384,392.0
51.961559949,376.0
51.987820514,378.0
52.014081079,405.0
52.040341644,405.0
52.066602209,349.0
52.092862774,368.0
52.119123339,356.0
52.145383904,436.0
52.171644469,409.0
52.197905034,421.0
52.224165599,392.0
52.250426164,394.0
52.276686729,429.0
52.302947294,368.0
52.329207859,395.0
52.355468424,429.0
52.381728989,420.0
52.407989554,404.0
52.434250119,386.0
52.460510684,370.0
52.486771249,380.0
52.513031814,377.0
52.539292379,384.0
52.565552944,382.0
52.591813509,392.0
52.618074074,393.0
52.644334639,441.0
52.670595204,367.0
52.696855769,405.0
52.723116334,407.0
52.749376899,402.0
52.775637464,400.0
52.801898029,412.0
52.828158594,391.0
52.854419159,384.0
52.880679724,426.0
52.906940289,405.0
52.933200854,427.0
52.959461419,374.0
52.985721984,395.0
53.011982549,388.0
53.038243114,385.0
53.064503679,419.0
53.090764244,362.0
53.117024809,432.0
53.143285374,346.0
53.169545939,394.0
53.195806504,363.0
53.222067069,359.0
53.248327634,391.0
53.274588199,322.0
53.300848764,393.0
53.327109329,388.0
53.353369894,362.0
53.379630459,419.0
53.405891024,386.0
53.432151589,358.0
53.458412154,361.0
53.484672719,432.0
53.510933284,386.0
53.537193849,404.0
53.563454414,396.0
53.589714979,447.0
53.615975544,374.0
53.642236109,399.0
53.668496674,429.0
53.694757239,351.0
53.721017804,397.0
53.747278369,407.0
53.773538934,373.0
53.799799499,345.0
53.826060064,394.0
53.852320629,398.0
53.878581194,389.0
53.904841759,391.0
53.931102324,390.0
53.957362889,363.0
53.983623454,359.0
54.009884019,378.0
54.036144584,380.0
54.062405149,400.0
54.088665714,407.0
54.114926279,375.0
54.141186844,367.0
54.167447409,380.0
54.193707974,406.0
54.219968539,404.0
54.246229104,401.0
54.272489669,371.0
54.298750234,371.0
54.325010800,362.0
54.351271365,368.0
54.377531930,365.0
54.403792495,360.0
54.430053060,410.0
54.456313625,388.0
54.482574190,388.0
54.508834755,380.0
54.535095320,377.0
54.561355885,359.0
54.587616450,412.0
54.613877015,368.0
54.640137580,411.0
54.666398145,358.0
54.692658710,365.0
54.718919275,410.0
54.745179840,386.0
54.771440405,383.0
54.797700970,331.0
54.823961535,391.0
54.850222100,391.0
54.876482665,395.0
54.902743230,382.0
54.929003795,368.0
54.955264360,378.0
54.981524925,372.0
55.007785490,390.0
55.034046055,362.0
55.060306620,431.0
55.086567185,374.0
55.112827750,356.0
55.139088315,368.0
55.165348880,383.0
55.191609445,416.0
55.217870010,364.0
55.244130575,378.0
55.270391140,376.0
55.296651705,368.0
55.322912270,373.0
55.349172835,404.0
55.375433400,428.0
55.401693965,390.0
55.427954530,406.0
55.454215095,379.0
55.480475660,356.0
55.506736225,391.0
55.532996790,375.0
55.559257355,394.0
55.585517920,356.0
55.611778485,364.0
55.638039050,374.0
55.664299615,346.0
55.690560180,356.0
55.716820745,377.0
55.743081310,371.0
55.769341875,359.0
55.795602440,375.0
55.821863005,360.0
55.848123570,384.0
55.874384135,360.0
55.900644700,369.0
55.926905265,355.0
55.953165830,340.0
55.979426395,348.0
56.005686960,342.0
56.031947525,383.0
56.058208090,380.0
56.084468655,394.0
56.110729220,367.0
56.136989785,397.0
56.163250350,363.0
56.189510915,380.0
56.215771480,374.0
56.242032045,368.0
56.268292610,374.0
56.294553175,395.0
56.320813740,335.0
56.347074305,374.0
56.373334870,334.0
56.399595435,341.0
56.425856000,352.0
56.452116565,398.0
56.478377130,380.0
56.504637695,384.0
56.530898260,351.0
56.557158825,379.0
56.583419390,367.0
56.609679955,341.0
56.635940520,348.0
56.662201085,354.0
56.688461650,359.0
56.714722215,367.0
56.740982780,366.0
56.767243345,332.0
56.793503910,387.0
56.819764475,401.0
56.846025040,354.0
56.872285605,385.0
56.898546170,388.0
56.924806735,353.0
56.951067300,369.0
56.977327865,344.0
57.003588430,363.0
57.029848995,355.0
57.056109560,347.0
57.082370125,397.0
57.108630690,363.0
57.134891255,348.0
57.161151820,333.0
57.187412385,359.0
57.213672950,353.0
57.239933515,371.0
57.266194080,317.0
57.292454645,381.0
57.318715210,309.0
57.344975775,363.0
57.371236340,374.0
57.397496905,333.0
57.423757470,335.0
57.450018035,364.0
57.476278600,329.0
57.502539165,374.0
57.528799730,338.0
57.555060295,333.0
57.581320860,384.0
57.607581425,359.0
57.633841990,346.0
57.660102555,359.0
57.686363120,397.0
57.712623686,379.0
57.738884251,335.0
57.765144816,370.0
57.791405381,352.0
57.817665946,342.0
57.843926511,357.0
57.870187076,348.0
57.896447641,307.0
57.922708206,338.0
57.948968771,341.0
57.975229336,387.0
58.001489901,352.0
58.027750466,370.0
58.054011031,350.0
58.080271596,353.0
58.106532161,372.0
58.132792726,358.0
58.159053291,349.0
58.185313856,365.0
58.211574421,371.0
58.237834986,354.0
58.264095551,347.0
58.290356116,360.0
58.316616681,321.0
58.342877246,376.0
58.369137811,357.0
58.395398376,332.0
58.421658941,326.0
58.447919506,341.0
58.474180071,370.0
58.500440636,360.0
58.526701201,353.0
58.552961766,329.0
58.579222331,346.0
58.605482896,347.0
58.631743461,373.0
58.658004026,356.0
58.684264591,335.0
58.710525156,361.0
58.736785721,336.0
58.763046286,339.0
58.789306851,351.0
58.815567416,345.0
58.841827981,335.0
58.868088546,375.0
58.894349111,364.0
58.920609676,347.0
58.946870241,364.0
58.973130806,343.0
58.999391371,330.0
59.025651936,357.0
59.051912501,333.0
59.078173066,357.0
59.104433631,351.0
59.130694196,343.0
59.156954761,341.0
59.183215326,338.0
59.209475891,376.0
59.235736456,317.0
59.261997021,328.0
59.288257586,370.0
59.314518151,329.0
59.340778716,338.0
59.367039281,367.0
59.393299846,310.0
59.419560411,335.0
59.445820976,384.0
59.472081541,344.0
59.498342106,342.0
59.524602671,312.0
59.550863236,341.0
59.577123801,320.0
59.603384366,321.0
59.629644931,346.0
59.655905496,345.0
59.682166061,388.0
59.708426626,337.0
59.734687191,364.0
59.760947756,348.0
59.787208321,357.0
59.813468886,349.0
59.839729451,368.0
59.865990016,382.0
59.892250581,332.0
59.918511146,355.0
59.944771711,321.0
59.971032276,317.0
59.997292841,347.0
60.023553406,341.0
60.049813971,340.0
60.076074536,361.0
60.102335101,338.0
60.128595666,374.0
60.154856231,301.0
60.181116796,341.0
60.207377361,354.0
60.233637926,342.0
60.259898491,309.0
60.286159056,345.0
60.312419621,302.0
60.338680186,328.0
60.364940751,319.0
60.391201316,338.0
60.417461881,330.0
60.443722446,312.0
60.469983011,358.0
60.496243576,343.0
60.522504141,338.0
60.548764706,369.0
60.575025271,323.0
60.601285836,323.0
60.627546401,340.0
60.653806966,336.0
60.680067531,316.0
60.706328096,366.0
60.732588661,351.0
60.758849226,345.0
60.785109791,312.0
60.811370356,334.0
60.837630921,343.0
60.863891486,338.0
60.890152051,355.0
60.916412616,331.0
60.942673181,321.0
60.968933746,381.0
60.995194311,325.0
61.021454876,357.0
61.047715441,355.0
61.073976006,350.0
61.100236571,330.0
61.126497137,376.0
61.152757702,353.0
61.179018267,322.0
61.205278832,322.0
61.231539397,347.0
61.257799962,350.0
61.284060527,346.0
61.310321092,351.0
61.336581657,366.0
61.362842222,362.0
61.389102787,334.0
61.415363352,338.0
61.441623917,368.0
61.467884482,373.0
61.494145047,343.0
61.520405612,320.0
61.546666177,355.0
61.572926742,372.0
61.599187307,375.0
61.625447872,369.0
61.651708437,311.0
61.677969002,341.0
61.704229567,348.0
61.730490132,323.0
61.756750697,321.0
61.783011262,319.0
61.809271827,356.0
61.835532392,294.0
61.861792957,321.0
61.888053522,350.0
61.914314087,329.0
61.940574652,340.0
61.966835217,334.0
61.993095782,352.0
62.019356347,348.0
62.045616912,384.0
62.071877477,367.0
62.098138042,373.0
62.124398607,366.0
62.150659172,350.0
62.176919737,353.0
62.203180302,342.0
62.229440867,348.0
62.255701432,321.0
62.281961997,345.0
62.308222562,311.0
62.334483127,333.0
62.360743692,332.0
62.387004257,348.0
62.413264822,317.0
62.439525387,335.0
62.465785952,349.0
62.492046517,370.0
62.518307082,329.0
62.544567647,346.0
62.570828212,357.0
62.597088777,305.0
62.623349342,368.0
62.649609907,382.0
62.675870472,312.0
62.702131037,337.0
62.728391602,316.0
62.754652167,342.0
62.780912732,333.0
62.807173297,333.0
62.833433862,350.0
62.859694427,320.0
62.885954992,366.0
62.912215557,309.0
62.938476122,357.0
62.964736687,343.0
62.990997252,320.0
63.017257817,299.0
63.043518382,310.0
63.069778947,318.0
63.096039512,303.0
63.122300077,330.0
63.148560642,347.0
63.174821207,348.0
63.201081772,337.0
63.227342337,325.0
63.253602902,331.0
63.279863467,325.0
63.306124032,284.0
63.332384597,315.0
63.358645162,389.0
63.384905727,328.0
63.411166292,328.0
63.437426857,340.0
63.463687422,355.0
63.489947987,334.0
63.516208552,337.0
63.542469117,334.0
63.568729682,315.0
63.594990247,316.0
63.621250812,345.0
63.647511377,318.0
63.673771942,325.0
63.700032507,349.0
63.726293072,330.0
63.752553637,313.0
63.778814202,300.0
63.805074767,357.0
63.831335332,327.0
63.857595897,336.0
63.883856462,341.0
63.910117027,348.0
63.936377592,343.0
63.962638157,343.0
63.988898722,330.0
64.015159287,333.0
64.041419852,336.0
64.067680417,306.0
64.093940982,322.0
64.120201547,355.0
64.146462112,340.0
64.172722677,302.0
64.198983242,287.0
64.225243807,355.0
64.251504372,293.0
64.277764937,321.0
64.304025502,309.0
64.330286067,318.0
64.356546632,296.0
64.382807197,273.0
64.409067762,343.0
64.435328327,362.0
64.461588892,324.0
64.487849457,362.0
64.514110023,294.0
64.540370588,302.0
64.566631153,290.0
64.592891718,323.0
64.619152283,333.0
64.645412848,333.0
64.671673413,337.0
64.697933978,330.0
64.724194543,323.0
64.750455108,308.0
64.776715673,309.0
64.802976238,297.0
64.829236803,335.0
64.855497368,339.0
64.881757933,304.0
64.908018498,315.0
64.934279063,301.0
64.960539628,334.0
64.986800193,299.0
65.013060758,319.0
65.039321323,275.0
65.065581888,329.0
65.091842453,318.0
65.118103018,313.0
65.144363583,302.0
65.170624148,294.0
65.196884713,343.0
65.223145278,312.0
65.249405843,269.0
65.275666408,330.0
65.301926973,285.0
65.328187538,293.0
65.354448103,353.0
65.380708668,320.0
65.406969233,304.0
65.433229798,333.0
65.459490363,342.0
65.485750928,317.0
65.512011493,342.0
65.538272058,262.0
65.564532623,288.0
65.590793188,322.0
65.617053753,328.0
65.643314318,284.0
65.669574883,308.0
65.695835448,287.0
65.722096013,290.0
65.748356578,316.0
65.774617143,300.0
65.800877708,309.0
65.827138273,283.0
65.853398838,321.0
65.879659403,315.0
65.905919968,322.0
65.932180533,319.0
65.958441098,316.0
65.984701663,317.0
66.010962228,311.0
66.037222793,318.0
66.063483358,274.0
66.089743923,290.0
66.116004488,319.0
66.142265053,306.0
66.168525618,263.0
66.194786183,318.0
66.221046748,304.0
66.247307313,324.0
66.273567878,286.0
66.299828443,332.0
66.326089008,338.0
66.352349573,321.0
66.378610138,300.0
66.404870703,324.0
66.431131268,320.0
66.457391833,307.0
66.483652398,272.0
66.509912963,299.0
66.536173528,273.0
66.562434093,308.0
66.588694658,338.0
66.614955223,328.0
66.641215788,300.0
66.667476353,331.0
66.693736918,273.0
66.719997483,286.0
66.746258048,320.0
66.772518613,305.0
66.798779178,311.0
66.825039743,283.0
66.851300308,303.0
66.877560873,304.0
66.903821438,313.0
66.930082003,318.0
66.956342568,301.0
66.982603133,321.0
67.008863698,304.0
67.035124263,299.0
67.061384828,316.0
67.087645393,299.0
67.113905958,287.0
67.140166523,297.0
67.166427088,304.0
67.192687653,323.0
67.218948218,306.0
67.245208783,296.0
67.271469348,290.0
67.297729913,307.0
67.323990478,309.0
67.350251043,287.0
67.376511608,294.0
67.402772173,320.0
67.429032738,318.0
67.455293303,293.0
67.481553868,338.0
67.507814433,290.0
67.534074998,281.0
67.560335563,289.0
67.586596128,307.0
67.612856693,330.0
67.639117258,316.0
67.665377823,307.0
67.691638388,282.0
67.717898953,333.0
67.744159518,291.0
67.770420083,316.0
67.796680648,276.0
67.822941213,302.0
67.849201778,336.0
67.875462343,288.0
67.901722909,299.0
67.927983474,260.0
67.954244039,314.0
67.980504604,309.0
68.006765169,302.0
68.033025734,278.0
68.059286299,266.0
68.085546864,300.0
68.111807429,290.0
68.138067994,304.0
68.164328559,280.0
68.190589124,288.0
68.216849689,310.0
68.243110254,269.0
68.269370819,298.0
68.295631384,290.0
68.321891949,285.0
68.348152514,306.0
68.374413079,277.0
68.400673644,279.0
68.426934209,283.0
68.453194774,288.0
68.479455339,293.0
68.505715904,334.0
68.531976469,305.0
68.558237034,270.0
68.584497599,270.0
68.610758164,275.0
68.637018729,281.0
68.663279294,288.0
68.689539859,313.0
68.715800424,270.0
68.742060989,291.0
68.768321554,313.0
68.794582119,297.0
68.820842684,277.0
68.847103249,296.0
68.873363814,306.0
68.899624379,275.0
68.925884944,283.0
68.952145509,316.0
68.978406074,320.0
69.004666639,295.0
69.030927204,290.0
69.057187769,345.0
69.083448334,289.0
69.109708899,246.0
69.135969464,327.0
69.162230029,297.0
69.188490594,318.0
69.214751159,301.0
69.241011724,296.0
69.267272289,297.0
69.293532854,287.0
69.319793419,315.0
69.346053984,280.0
69.372314549,313.0
69.398575114,283.0
69.424835679,296.0
69.451096244,322.0
69.477356809,318.0
69.503617374,280.0
69.529877939,315.0
69.556138504,290.0
69.582399069,263.0
69.608659634,279.0
69.634920199,292.0
69.661180764,280.0
69.687441329,266.0
69.713701894,278.0
69.739962459,259.0
69.766223024,266.0
69.792483589,275.0
69.818744154,268.0
69.845004719,279.0
69.871265284,285.0
69.897525849,292.0
69.923786414,272.0
69.950046979,275.0
69.976307544,276.0
70.002568109,283.0
70.028828674,298.0
70.055089239,269.0
70.081349804,269.0
70.107610369,286.0
70.133870934,315.0
70.160131499,312.0
70.186392064,273.0
70.212652629,266.0
70.238913194,289.0
70.265173759,266.0
70.291434324,305.0
70.317694889,283.0
70.343955454,267.0
70.370216019,246.0
70.396476584,272.0
70.422737149,303.0
70.448997714,232.0
70.475258279,284.0
70.501518844,289.0
70.527779409,273.0
70.554039974,267.0
70.580300539,305.0
70.606561104,264.0
70.632821669,288.0
70.659082234,289.0
70.685342799,309.0
70.711603364,305.0
70.737863929,289.0
70.764124494,284.0
70.790385059,297.0
70.816645624,255.0
70.842906189,278.0
70.869166754,269.0
70.895427319,271.0
70.921687884,288.0
70.947948449,312.0
70.974209014,283.0
71.000469579,305.0
71.026730144,313.0
71.052990709,299.0
71.079251274,290.0
71.105511839,259.0
71.131772404,270.0
71.158032969,287.0
71.184293534,286.0
71.210554099,289.0
71.236814664,285.0
71.263075229,281.0
71.289335794,314.0
71.315596360,270.0
71.341856925,270.0
71.368117490,260.0
71.394378055,274.0
71.420638620,253.0
71.446899185,266.0
71.473159750,262.0
71.499420315,263.0
71.525680880,288.0
71.551941445,268.0
71.578202010,274.0
71.604462575,267.0
71.630723140,299.0
71.656983705,264.0
71.683244270,258.0
71.709504835,301.0
71.735765400,280.0
71.762025965,253.0
71.788286530,320.0
71.814547095,289.0
71.840807660,325.0
71.867068225,286.0
71.893328790,292.0
71.919589355,278.0
71.945849920,269.0
71.972110485,295.0
71.998371050,315.0
72.024631615,296.0
72.050892180,312.0
72.077152745,280.0
72.103413310,263.0
72.129673875,304.0
72.155934440,288.0
72.182195005,286.0
72.208455570,265.0
72.234716135,276.0
72.260976700,256.0
72.287237265,282.0
72.313497830,266.0
72.339758395,314.0
72.366018960,314.0
72.392279525,272.0
72.418540090,300.0
72.444800655,263.0
72.471061220,271.0
72.497321785,298.0
72.523582350,253.0
72.549842915,292.0
72.576103480,275.0
72.602364045,270.0
72.628624610,246.0
72.654885175,270.0
72.681145740,264.0
72.707406305,277.0
72.733666870,277.0
72.759927435,283.0
72.786188000,306.0
72.812448565,268.0
72.838709130,264.0
72.864969695,304.0
72.891230260,265.0
72.917490825,294.0
72.943751390,272.0
72.970011955,285.0
72.996272520,260.0
73.022533085,258.0
73.048793650,283.0
73.075054215,286.0
73.101314780,279.0
73.127575345,316.0
73.153835910,280.0
73.180096475,317.0
73.206357040,281.0
73.232617605,291.0
73.258878170,283.0
73.285138735,266.0
73.311399300,323.0
73.337659865,270.0
73.363920430,255.0
73.390180995,289.0
73.416441560,274.0
73.442702125,290.0
73.468962690,289.0
73.495223255,281.0
73.521483820,286.0
73.547744385,282.0
73.574004950,294.0
73.600265515,266.0
73.626526080,300.0
73.652786645,281.0
73.679047210,257.0
73.705307775,278.0
73.731568340,284.0
73.757828905,270.0
73.784089470,282.0
73.810350035,285.0
73.836610600,241.0
73.862871165,275.0
73.889131730,306.0
73.915392295,294.0
73.941652860,256.0
73.967913425,274.0
73.994173990,273.0
74.020434555,250.0
74.046695120,259.0
74.072955685,284.0
74.099216250,265.0
74.125476815,268.0
74.151737380,267.0
74.177997945,277.0
74.204258510,290.0
74.230519075,235.0
74.256779640,299.0
74.283040205,273.0
74.309300770,257.0
74.335561335,231.0
74.361821900,277.0
74.388082465,272.0
74.414343030,238.0
74.440603595,282.0
74.466864160,269.0
74.493124725,267.0
74.519385290,272.0
74.545645855,270.0
74.571906420,279.0
74.598166985,256.0
74.624427550,282.0
74.650688115,268.0
74.676948680,308.0
74.703209246,280.0
74.729469811,285.0
74.755730376,298.0
74.781990941,277.0
74.808251506,255.0
74.834512071,272.0
74.860772636,265.0
74.887033201,266.0
74.913293766,274.0
74.939554331,297.0
74.965814896,269.0
74.992075461,273.0
75.018336026,271.0
75.044596591,290.0
75.070857156,262.0
75.097117721,271.0
75.123378286,272.0
75.149638851,267.0
75.175899416,304.0
75.202159981,277.0
75.228420546,292.0
75.254681111,250.0
75.280941676,259.0
75.307202241,282.0
75.333462806,272.0
75.359723371,258.0
75.385983936,284.0
75.412244501,273.0
75.438505066,257.0
75.464765631,271.0
75.491026196,260.0
75.517286761,273.0
75.543547326,263.0
75.569807891,266.0
75.596068456,270.0
75.622329021,262.0
75.648589586,292.0
75.674850151,255.0
75.701110716,271.0
75.727371281,255.0
75.753631846,266.0
75.779892411,274.0
75.806152976,258.0
75.832413541,251.0
75.858674106,287.0
75.884934671,253.0
75.911195236,242.0
75.937455801,293.0
75.963716366,308.0
75.989976931,244.0
76.016237496,253.0
76.042498061,249.0
76.068758626,244.0
76.095019191,243.0
76.121279756,262.0
76.147540321,266.0
76.173800886,282.0
76.200061451,258.0
76.226322016,276.0
76.252582581,220.0
76.278843146,308.0
76.305103711,252.0
76.331364276,250.0
76.357624841,299.0
76.383885406,256.0
76.410145971,290.0
76.436406536,258.0
76.462667101,248.0
76.488927666,238.0
76.515188231,275.0
76.541448796,267.0
76.567709361,267.0
76.593969926,269.0
76.620230491,257.0
76.646491056,255.0
76.672751621,273.0
76.699012186,273.0
76.725272751,257.0
76.751533316,278.0
76.777793881,267.0
76.804054446,272.0
76.830315011,270.0
76.856575576,251.0
76.882836141,250.0
76.909096706,249.0
76.935357271,281.0
76.961617836,271.0
76.987878401,274.0
77.014138966,271.0
77.040399531,266.0
77.066660096,261.0
77.092920661,246.0
77.119181226,289.0
77.145441791,301.0
77.171702356,295.0
77.197962921,261.0
77.224223486,269.0
77.250484051,253.0
77.276744616,246.0
77.303005181,238.0
77.329265746,261.0
77.355526311,269.0
77.381786876,282.0
77.408047441,259.0
77.434308006,260.0
77.460568571,264.0
77.486829136,298.0
77.513089701,288.0
77.539350266,273.0
77.565610831,263.0
77.591871396,290.0
77.618131961,279.0
77.644392526,248.0
77.670653091,256.0
77.696913656,291.0
77.723174221,280.0
77.749434786,288.0
77.775695351,249.0
77.801955916,264.0
77.828216481,270.0
77.854477046,262.0
77.880737611,267.0
77.906998176,236.0
77.933258741,257.0
77.959519306,253.0
77.985779871,291.0
78.012040436,298.0
78.038301001,263.0
78.064561566,276.0
78.090822131,270.0
78.117082697,244.0
78.143343262,282.0
78.169603827,250.0
78.195864392,231.0
78.222124957,274.0
78.248385522,242.0
78.274646087,258.0
78.300906652,271.0
78.327167217,267.0
78.353427782,262.0
78.379688347,238.0
78.405948912,277.0
78.432209477,275.0
78.458470042,264.0
78.484730607,278.0
78.510991172,233.0
78.537251737,230.0
78.563512302,241.0
78.589772867,249.0
78.616033432,260.0
78.642293997,268.0
78.668554562,272.0
78.694815127,261.0
78.721075692,253.0
78.747336257,246.0
78.773596822,273.0
78.799857387,275.0
78.826117952,254.0
78.852378517,294.0
78.878639082,256.0
78.904899647,226.0
78.931160212,266.0
78.957420777,273.0
78.983681342,239.0
79.009941907,271.0
79.036202472,272.0
79.062463037,248.0
79.088723602,260.0
79.114984167,241.0
79.141244732,248.0
79.167505297,242.0
79.193765862,247.0
79.220026427,248.0
79.246286992,253.0
79.272547557,238.0
79.298808122,272.0
79.325068687,230.0
79.351329252,269.0
79.377589817,272.0
79.403850382,242.0
79.430110947,268.0
79.456371512,246.0
79.482632077,267.0
79.508892642,246.0
79.535153207,246.0
79.561413772,256.0
79.587674337,240.0
79.613934902,232.0
79.640195467,265.0
79.666456032,245.0
79.692716597,253.0
79.718977162,297.0
79.745237727,240.0
79.771498292,245.0
79.797758857,224.0
79.824019422,230.0
79.850279987,250.0
79.876540552,259.0
79.902801117,274.0
79.929061682,247.0
79.955322247,249.0
79.981582812,262.0
80.007843377,234.0
80.034103942,274.0
80.060364507,265.0
80.086625072,252.0
80.112885637,213.0
80.139146202,249.0
80.165406767,255.0
80.191667332,253.0
80.217927897,246.0
80.244188462,266.0
80.270449027,227.0
80.296709592,242.0
80.322970157,237.0
80.349230722,250.0
80.375491287,244.0
80.401751852,234.0
80.428012417,266.0
80.454272982,250.0
80.480533547,229.0
80.506794112,254.0
80.533054677,218.0
80.559315242,247.0
80.585575807,229.0
80.611836372,253.0
80.638096937,253.0
80.664357502,219.0
80.690618067,248.0
80.716878632,242.0
80.743139197,252.0
80.769399762,229.0
80.795660327,245.0
80.821920892,228.0
80.848181457,239.0
80.874442022,243.0
80.900702587,246.0
80.926963152,260.0
80.953223717,242.0
80.979484282,253.0
81.005744847,278.0
81.032005412,274.0
81.058265977,252.0
81.084526542,250.0
81.110787107,244.0
81.137047672,232.0
81.163308237,236.0
81.189568802,275.0
81.215829367,251.0
81.242089932,233.0
81.268350497,249.0
81.294611062,253.0
81.320871627,239.0
81.347132192,256.0
81.373392757,280.0
81.399653322,235.0
81.425913887,286.0
81.452174452,246.0
81.478435017,240.0
81.504695583,224.0
81.530956148,223.0
81.557216713,255.0
81.583477278,254.0
81.609737843,245.0
81.635998408,263.0
81.662258973,273.0
81.688519538,240.0
81.714780103,223.0
81.741040668,251.0
81.767301233,245.0
81.793561798,234.0
81.819822363,236.0
81.846082928,222.0
81.872343493,263.0
81.898604058,214.0
81.924864623,231.0
81.951125188,234.0
81.977385753,233.0
82.003646318,212.0
82.029906883,256.0
82.056167448,249.0
82.082428013,227.0
82.108688578,217.0
82.134949143,226.0
82.161209708,235.0
82.187470273,220.0
82.213730838,255.0
82.239991403,228.0
82.266251968,224.0
82.292512533,240.0
82.318773098,234.0
82.345033663,276.0
82.371294228,245.0
82.397554793,252.0
82.423815358,221.0
82.450075923,251.0
82.476336488,243.0
82.502597053,206.0
82.528857618,243.0
82.555118183,222.0
82.581378748,232.0
82.607639313,269.0
82.633899878,255.0
82.660160443,249.0
82.686421008,234.0
82.712681573,258.0
82.738942138,211.0
82.765202703,239.0
82.791463268,223.0
82.817723833,231.0
82.843984398,253.0
82.870244963,233.0
82.896505528,229.0
82.922766093,229.0
82.949026658,230.0
82.975287223,218.0
83.001547788,235.0
83.027808353,263.0
83.054068918,237.0
83.080329483,231.0
83.106590048,232.0
83.132850613,237.0
83.159111178,239.0
83.185371743,225.0
83.211632308,257.0
83.237892873,242.0
83.264153438,245.0
83.290414003,256.0
83.316674568,226.0
83.342935133,246.0
83.369195698,241.0
83.395456263,227.0
83.421716828,212.0
83.447977393,235.0
83.474237958,216.0
83.500498523,234.0
83.526759088,247.0
83.553019653,213.0
83.579280218,221.0
83.605540783,235.0
83.631801348,236.0
83.658061913,204.0
83.684322478,241.0
83.710583043,229.0
83.736843608,220.0
83.763104173,235.0
83.789364738,229.0
83.815625303,231.0
83.841885868,196.0
83.868146433,227.0
83.894406998,267.0
83.920667563,221.0
83.946928128,209.0
83.973188693,250.0
83.999449258,230.0
84.025709823,213.0
84.051970388,228.0
84.078230953,218.0
84.104491518,261.0
84.130752083,216.0
84.157012648,239.0
84.183273213,229.0
84.209533778,229.0
84.235794343,233.0
84.262054908,234.0
84.288315473,202.0
84.314576038,212.0
84.340836603,228.0
84.367097168,221.0
84.393357733,233.0
84.419618298,229.0
84.445878863,229.0
84.472139428,207.0
84.498399993,246.0
84.524660558,219.0
84.550921123,214.0
84.577181688,241.0
84.603442253,217.0
84.629702818,220.0
84.655963383,200.0
84.682223948,229.0
84.708484513,236.0
84.734745078,253.0
84.761005643,202.0
84.787266208,231.0
84.813526773,239.0
84.839787338,198.0
84.866047903,192.0
84.892308469,228.0
84.918569034,208.0
84.944829599,224.0
84.971090164,245.0
84.997350729,249.0
85.023611294,265.0
85.049871859,227.0
85.076132424,239.0
85.102392989,229.0
85.128653554,201.0
85.154914119,239.0
85.181174684,235.0
85.207435249,214.0
85.233695814,223.0
85.259956379,230.0
85.286216944,224.0
85.312477509,231.0
85.338738074,233.0
85.364998639,236.0
85.391259204,232.0
85.417519769,210.0
85.443780334,212.0
85.470040899,210.0
85.496301464,215.0
85.522562029,220.0
85.548822594,214.0
85.575083159,207.0
85.601343724,244.0
85.627604289,196.0
85.653864854,257.0
85.680125419,186.0
85.706385984,246.0
85.732646549,242.0
85.758907114,224.0
85.785167679,230.0
85.811428244,263.0
85.837688809,245.0
85.863949374,219.0
85.890209939,200.0
85.916470504,186.0
85.942731069,226.0
85.968991634,223.0
85.995252199,206.0
86.021512764,229.0
86.047773329,210.0
86.074033894,196.0
86.100294459,237.0
86.126555024,220.0
86.152815589,234.0
86.179076154,224.0
86.205336719,242.0
86.231597284,238.0
86.257857849,226.0
86.284118414,227.0
86.310378979,208.0
86.336639544,230.0
86.362900109,190.0
86.389160674,213.0
86.415421239,206.0
86.441681804,221.0
86.467942369,236.0
86.494202934,177.0
86.520463499,236.0
86.546724064,222.0
86.572984629,240.0
86.599245194,236.0
86.625505759,206.0
86.651766324,242.0
86.678026889,205.0
86.704287454,193.0
86.730548019,233.0
86.756808584,225.0
86.783069149,239.0
86.809329714,197.0
86.835590279,212.0
86.861850844,214.0
86.888111409,205.0
86.914371974,206.0
86.940632539,257.0
86.966893104,237.0
86.993153669,194.0
87.019414234,234.0
87.045674799,222.0
87.071935364,185.0
87.098195929,221.0
87.124456494,188.0
87.150717059,191.0
87.176977624,197.0
87.203238189,245.0
87.229498754,233.0
87.255759319,229.0
87.282019884,228.0
87.308280449,211.0
87.334541014,217.0
87.360801579,220.0
87.387062144,267.0
87.413322709,244.0
87.439583274,198.0
87.465843839,217.0
87.492104404,220.0
87.518364969,252.0
87.544625534,215.0
87.570886099,214.0
87.597146664,198.0
87.623407229,211.0
87.649667794,191.0
87.675928359,223.0
87.702188924,219.0
87.728449489,205.0
87.754710054,212.0
87.780970619,226.0
87.807231184,204.0
87.833491749,225.0
87.859752314,232.0
87.886012879,216.0
87.912273444,196.0
87.938534009,191.0
87.964794574,230.0
87.991055139,228.0
88.017315704,190.0
88.043576269,237.0
88.069836834,216.0
88.096097399,220.0
88.122357964,194.0
88.148618529,194.0
88.174879094,204.0
88.201139659,198.0
88.227400224,219.0
88.253660789,209.0
88.279921354,193.0
88.306181920,229.0
88.332442485,221.0
88.358703050,202.0
88.384963615,220.0
88.411224180,214.0
88.437484745,213.0
88.463745310,223.0
88.490005875,205.0
88.516266440,215.0
88.542527005,220.0
88.568787570,237.0
88.595048135,217.0
88.621308700,228.0
88.647569265,235.0
88.673829830,228.0
88.700090395,240.0
88.726350960,215.0
88.752611525,235.0
88.778872090,252.0
88.805132655,229.0
88.831393220,232.0
88.857653785,202.0
88.883914350,229.0
88.910174915,198.0
88.936435480,200.0
88.962696045,187.0
88.988956610,228.0
89.015217175,187.0
89.041477740,202.0
89.067738305,233.0
89.093998870,206.0
89.120259435,211.0
89.146520000,211.0
89.172780565,206.0
89.199041130,237.0
89.225301695,210.0
89.251562260,217.0
89.277822825,239.0
89.304083390,222.0
89.330343955,222.0
89.356604520,224.0
89.382865085,217.0
89.409125650,199.0
89.435386215,197.0
89.461646780,194.0
89.487907345,201.0
89.514167910,208.0
89.540428475,194.0
89.566689040,213.0
89.592949605,220.0
89.619210170,203.0
89.645470735,218.0
89.671731300,214.0
89.697991865,218.0
89.724252430,207.0
89.750512995,217.0
89.776773560,228.0
89.803034125,192.0
89.829294690,225.0
89.855555255,217.0
89.881815820,212.0
89.908076385,224.0
89.934336950,213.0
89.960597515,204.0
89.986858080,214.0
