[Measurement conditions]
Sample identification,
Comment - 1,"Configuration=Stage for flat samples/holders, Owner=User-1, Creation date=3/27/2015 11:56:23 AM"
Comment - 2,"Goniometer=Theta/Theta; Minimum step size 2Theta:0.0001; Minimum step size Omega:0.0001"
Comment - 3,"Sample stage=Stage for flat samples/holders"
Comment - 4,"Diffractometer system=EMPYREAN"
Comment - 5,"Measurement program=C:\PANalytical\Data Collector\Programs\Powder - Copy.xrdmp, Identifier={BEEA10DD-8FD6-4721-8940-4FBC5A4262A1}"
Comment - 6,"Fine Calibration Offset for 2Theta = -0.0130 deg"
Comment - 7,"Fine Calibration Offset for Omega = -0.0070 deg"
Anode material,Cu
K-Alpha1 wavelength,1.5405980
K-Alpha2 wavelength,1.5444260
Ratio K-Alpha2/K-Alpha1,0.500
Divergence slit,Fixed,0.38mm
Monochromator used,NO
Generator voltage, 40
Tube current, 35
File date and time,24/Jul/2017 16:59
Unit cell,
h k l, 0 0 0
Scan axis,Gonio
Scan range,5.020799997,89.999988363
Scan step size,0.0262606
No. of points, 3236
Scan type,CONTINUOUS
Time per step,18.615
[Scan points]
Angle,Intensity
5.033930280,2598.0
5.060190845,2520.0
5.086451410,2483.0
5.112711975,2513.0
5.138972540,2531.0
5.165233105,2592.0
5.191493670,2496.0
5.217754235,2427.0
5.244014800,2503.0
5.270275365,2510.0
5.296535930,2445.0
5.322796495,2459.0
5.349057060,2422.0
5.375317625,2464.0
5.401578190,2422.0
5.427838755,2379.0
5.454099320,2493.0
5.480359885,2353.0
5.506620450,2424.0
5.532881015,2400.0
5.559141580,2353.0
5.585402145,2374.0
5.611662710,2340.0
5.637923275,2348.0
5.664183840,2411.0
5.690444405,2374.0
5.716704970,2245.0
5.742965535,2418.0
5.769226100,2384.0
5.795486665,2252.0
5.821747230,2316.0
5.848007795,2315.0
5.874268360,2301.0
5.900528925,2310.0
5.926789490,2337.0
5.953050055,2208.0
5.979310620,2334.0
6.005571185,2288.0
6.031831750,2342.0
6.058092315,2314.0
6.084352880,2326.0
6.110613445,2259.0
6.136874010,2357.0
6.163134575,2284.0
6.189395140,2356.0
6.215655705,2255.0
6.241916270,2346.0
6.268176835,2236.0
6.294437400,2253.0
6.320697965,2243.0
6.346958530,2219.0
6.373219095,2255.0
6.399479660,2209.0
6.425740225,2156.0
6.452000790,2205.0
6.478261355,2196.0
6.504521920,2156.0
6.530782485,2223.0
6.557043050,2187.0
6.583303615,2193.0
6.609564180,2147.0
6.635824745,2183.0
6.662085310,2188.0
6.688345875,2113.0
6.714606440,2165.0
6.740867006,2198.0
6.767127571,2142.0
6.793388136,2124.0
6.819648701,2102.0
6.845909266,2052.0
6.872169831,2191.0
6.898430396,2162.0
6.924690961,2082.0
6.950951526,2040.0
6.977212091,2242.0
7.003472656,2159.0
7.029733221,2155.0
7.055993786,2100.0
7.082254351,2048.0
7.108514916,2115.0
7.134775481,2131.0
7.161036046,2120.0
7.187296611,2075.0
7.213557176,2008.0
7.239817741,2111.0
7.266078306,2015.0
7.292338871,2054.0
7.318599436,2013.0
7.344860001,2104.0
7.371120566,2148.0
7.397381131,2100.0
7.423641696,2055.0
7.449902261,2024.0
7.476162826,2002.0
7.502423391,2079.0
7.528683956,2101.0
7.554944521,1955.0
7.581205086,2045.0
7.607465651,2027.0
7.633726216,1973.0
7.659986781,2006.0
7.686247346,1953.0
7.712507911,1989.0
7.738768476,2077.0
7.765029041,1988.0
7.791289606,2029.0
7.817550171,2010.0
7.843810736,1959.0
7.870071301,1957.0
7.896331866,1967.0
7.922592431,1949.0
7.948852996,2049.0
7.975113561,1991.0
8.001374126,2001.0
8.027634691,2061.0
8.053895256,1988.0
8.080155821,1923.0
8.106416386,1970.0
8.132676951,2039.0
8.158937516,1927.0
8.185198081,1918.0
8.211458646,1908.0
8.237719211,1941.0
8.263979776,1992.0
8.290240341,1854.0
8.316500906,1945.0
8.342761471,1911.0
8.369022036,1909.0
8.395282601,1786.0
8.421543166,1922.0
8.447803731,1975.0
8.474064296,1948.0
8.500324861,1902.0
8.526585426,1945.0
8.552845991,1840.0
8.579106556,1899.0
8.605367121,1894.0
8.631627686,1870.0
8.657888251,1846.0
8.684148816,1926.0
8.710409381,1820.0
8.736669946,1955.0
8.762930511,1947.0
8.789191076,1911.0
8.815451641,1959.0
8.841712206,1862.0
8.867972771,1881.0
8.894233336,1878.0
8.920493901,1876.0
8.946754466,1878.0
8.973015031,1918.0
8.999275596,1872.0
9.025536161,1871.0
9.051796726,1913.0
9.078057291,1837.0
9.104317856,1886.0
9.130578421,1836.0
9.156838986,1907.0
9.183099551,1805.0
9.209360116,1773.0
9.235620681,1823.0
9.261881246,1846.0
9.288141811,1861.0
9.314402376,1845.0
9.340662941,1906.0
9.366923506,1832.0
9.393184071,1814.0
9.419444636,1784.0
9.445705201,1833.0
9.471965766,1828.0
9.498226331,1828.0
9.524486896,1899.0
9.550747461,1839.0
9.577008026,1744.0
9.603268591,1879.0
9.629529156,1734.0
9.655789721,1810.0
9.682050286,1789.0
9.708310851,1838.0
9.734571416,1900.0
9.760831981,1900.0
9.787092546,1912.0
9.813353111,1924.0
9.839613676,1864.0
9.865874241,1807.0
9.892134806,1782.0
9.918395371,1857.0
9.944655936,1870.0
9.970916501,1827.0
9.997177066,1866.0
10.023437631,1883.0
10.049698196,1889.0
10.075958761,1910.0
10.102219326,1840.0
10.128479891,1901.0
10.154740457,1957.0
10.181001022,1864.0
10.207261587,1922.0
10.233522152,1906.0
10.259782717,1909.0
10.286043282,1946.0
10.312303847,1802.0
10.338564412,1920.0
10.364824977,1822.0
10.391085542,1882.0
10.417346107,1867.0
10.443606672,1891.0
10.469867237,1884.0
10.496127802,1937.0
10.522388367,1845.0
10.548648932,1838.0
10.574909497,1823.0
10.601170062,1924.0
10.627430627,1845.0
10.653691192,1918.0
10.679951757,1875.0
10.706212322,1959.0
10.732472887,1874.0
10.758733452,1875.0
10.784994017,1880.0
10.811254582,1929.0
10.837515147,1876.0
10.863775712,1962.0
10.890036277,1992.0
10.916296842,1969.0
10.942557407,1913.0
10.968817972,1879.0
10.995078537,1885.0
11.021339102,1896.0
11.047599667,1923.0
11.073860232,1963.0
11.100120797,1950.0
11.126381362,1935.0
11.152641927,1896.0
11.178902492,1836.0
11.205163057,1908.0
11.231423622,1987.0
11.257684187,1964.0
11.283944752,1952.0
11.310205317,1955.0
11.336465882,1872.0
11.362726447,1877.0
11.388987012,1846.0
11.415247577,2009.0
11.441508142,1977.0
11.467768707,2013.0
11.494029272,1940.0
11.520289837,1972.0
11.546550402,2056.0
11.572810967,1959.0
11.599071532,1981.0
11.625332097,1988.0
11.651592662,1930.0
11.677853227,1959.0
11.704113792,1961.0
11.730374357,1998.0
11.756634922,1895.0
11.782895487,2014.0
11.809156052,1915.0
11.835416617,2110.0
11.861677182,2042.0
11.887937747,2043.0
11.914198312,2035.0
11.940458877,1978.0
11.966719442,2010.0
11.992980007,2167.0
12.019240572,1994.0
12.045501137,2029.0
12.071761702,2041.0
12.098022267,2026.0
12.124282832,2072.0
12.150543397,2011.0
12.176803962,2052.0
12.203064527,2086.0
12.229325092,1994.0
12.255585657,2095.0
12.281846222,2074.0
12.308106787,2005.0
12.334367352,2041.0
12.360627917,2062.0
12.386888482,2043.0
12.413149047,2047.0
12.439409612,2119.0
12.465670177,2124.0
12.491930742,2227.0
12.518191307,2153.0
12.544451872,2101.0
12.570712437,2052.0
12.596973002,2127.0
12.623233567,2221.0
12.649494132,2161.0
12.675754697,2137.0
12.702015262,2159.0
12.728275827,2076.0
12.754536392,2092.0
12.780796957,2238.0
12.807057522,2238.0
12.833318087,2197.0
12.859578652,2172.0
12.885839217,2168.0
12.912099782,2162.0
12.938360347,2174.0
12.964620912,2247.0
12.990881477,2124.0
13.017142042,2112.0
13.043402607,2210.0
13.069663172,2146.0
13.095923737,2151.0
13.122184302,2171.0
13.148444867,2206.0
13.174705432,2199.0
13.200965997,2192.0
13.227226562,2221.0
13.253487127,2197.0
13.279747692,2231.0
13.306008257,2282.0
13.332268822,2204.0
13.358529387,2216.0
13.384789952,2314.0
13.411050517,2185.0
13.437311082,2298.0
13.463571647,2219.0
13.489832212,2279.0
13.516092777,2162.0
13.542353343,2229.0
13.568613908,2140.0
13.594874473,2268.0
13.621135038,2219.0
13.647395603,2289.0
13.673656168,2136.0
13.699916733,2261.0
13.726177298,2197.0
13.752437863,2194.0
13.778698428,2153.0
13.804958993,2278.0
13.831219558,2273.0
13.857480123,2108.0
13.883740688,2158.0
13.910001253,2174.0
13.936261818,2216.0
13.962522383,2320.0
13.988782948,2294.0
14.015043513,2289.0
14.041304078,2239.0
14.067564643,2204.0
14.093825208,2369.0
14.120085773,2359.0
14.146346338,2268.0
14.172606903,2358.0
14.198867468,2256.0
14.225128033,2275.0
14.251388598,2296.0
14.277649163,2358.0
14.303909728,2306.0
14.330170293,2308.0
14.356430858,2273.0
14.382691423,2259.0
14.408951988,2308.0
14.435212553,2346.0
14.461473118,2229.0
14.487733683,2251.0
14.513994248,2236.0
14.540254813,2295.0
14.566515378,2246.0
14.592775943,2355.0
14.619036508,2320.0
14.645297073,2313.0
14.671557638,2220.0
14.697818203,2372.0
14.724078768,2280.0
14.750339333,2349.0
14.776599898,2347.0
14.802860463,2218.0
14.829121028,2233.0
14.855381593,2294.0
14.881642158,2307.0
14.907902723,2296.0
14.934163288,2374.0
14.960423853,2262.0
14.986684418,2324.0
15.012944983,2203.0
15.039205548,2234.0
15.065466113,2179.0
15.091726678,2157.0
15.117987243,2173.0
15.144247808,2139.0
15.170508373,2069.0
15.196768938,2120.0
15.223029503,2123.0
15.249290068,2135.0
15.275550633,1979.0
15.301811198,2017.0
15.328071763,1960.0
15.354332328,1896.0
15.380592893,1891.0
15.406853458,1896.0
15.433114023,1955.0
15.459374588,1868.0
15.485635153,1952.0
15.511895718,1815.0
15.538156283,1804.0
15.564416848,1746.0
15.590677413,1769.0
15.616937978,1685.0
15.643198543,1674.0
15.669459108,1655.0
15.695719673,1654.0
15.721980238,1668.0
15.748240803,1574.0
15.774501368,1578.0
15.800761933,1560.0
15.827022498,1601.0
15.853283063,1527.0
15.879543628,1503.0
15.905804193,1438.0
15.932064758,1538.0
15.958325323,1397.0
15.984585888,1450.0
16.010846453,1426.0
16.037107018,1376.0
16.063367583,1347.0
16.089628148,1323.0
16.115888713,1300.0
16.142149278,1335.0
16.168409843,1376.0
16.194670408,1340.0
16.220930973,1297.0
16.247191538,1285.0
16.273452103,1298.0
16.299712668,1274.0
16.325973233,1266.0
16.352233798,1224.0
16.378494363,1188.0
16.404754928,1290.0
16.431015493,1257.0
16.457276058,1231.0
16.483536623,1172.0
16.509797188,1236.0
16.536057753,1185.0
16.562318318,1203.0
16.588578883,1166.0
16.614839448,1195.0
16.641100013,1086.0
16.667360578,1123.0
16.693621143,1055.0
16.719881708,1186.0
16.746142273,1174.0
16.772402838,1131.0
16.798663403,1054.0
16.824923968,1102.0
16.851184533,1108.0
16.877445098,1094.0
16.903705663,1114.0
16.929966229,1023.0
16.956226794,1124.0
16.982487359,1119.0
17.008747924,1059.0
17.035008489,1005.0
17.061269054,991.0
17.087529619,1081.0
17.113790184,1064.0
17.140050749,1045.0
17.166311314,993.0
17.192571879,1066.0
17.218832444,974.0
17.245093009,1036.0
17.271353574,1034.0
17.297614139,1002.0
17.323874704,1068.0
17.350135269,1000.0
17.376395834,1019.0
17.402656399,978.0
17.428916964,989.0
17.455177529,993.0
17.481438094,957.0
17.507698659,971.0
17.533959224,1015.0
17.560219789,972.0
17.586480354,959.0
17.612740919,990.0
17.639001484,900.0
17.665262049,984.0
17.691522614,883.0
17.717783179,936.0
17.744043744,946.0
17.770304309,925.0
17.796564874,944.0
17.822825439,982.0
17.849086004,916.0
17.875346569,941.0
17.901607134,981.0
17.927867699,942.0
17.954128264,974.0
17.980388829,955.0
18.006649394,935.0
18.032909959,927.0
18.059170524,930.0
18.085431089,900.0
18.111691654,873.0
18.137952219,947.0
18.164212784,865.0
18.190473349,893.0
18.216733914,881.0
18.242994479,921.0
18.269255044,901.0
18.295515609,860.0
18.321776174,924.0
18.348036739,967.0
18.374297304,887.0
18.400557869,944.0
18.426818434,866.0
18.453078999,865.0
18.479339564,910.0
18.505600129,922.0
18.531860694,921.0
18.558121259,916.0
18.584381824,813.0
18.610642389,863.0
18.636902954,856.0
18.663163519,849.0
18.689424084,863.0
18.715684649,839.0
18.741945214,819.0
18.768205779,817.0
18.794466344,861.0
18.820726909,859.0
18.846987474,889.0
18.873248039,879.0
18.899508604,886.0
18.925769169,892.0
18.952029734,914.0
18.978290299,894.0
19.004550864,892.0
19.030811429,897.0
19.057071994,884.0
19.083332559,907.0
19.109593124,839.0
19.135853689,869.0
19.162114254,854.0
19.188374819,893.0
19.214635384,840.0
19.240895949,833.0
19.267156514,814.0
19.293417079,813.0
19.319677644,884.0
19.345938209,859.0
19.372198774,834.0
19.398459339,851.0
19.424719904,834.0
19.450980469,820.0
19.477241034,845.0
19.503501599,862.0
19.529762164,880.0
19.556022729,827.0
19.582283294,832.0
19.608543859,894.0
19.634804424,791.0
19.661064989,818.0
19.687325554,839.0
19.713586119,836.0
19.739846684,887.0
19.766107249,832.0
19.792367814,876.0
19.818628379,887.0
19.844888944,785.0
19.871149509,769.0
19.897410074,851.0
19.923670639,892.0
19.949931204,861.0
19.976191769,832.0
20.002452334,891.0
20.028712899,841.0
20.054973464,862.0
20.081234029,829.0
20.107494594,861.0
20.133755159,819.0
20.160015724,885.0
20.186276289,820.0
20.212536854,829.0
20.238797419,791.0
20.265057984,807.0
20.291318549,868.0
20.317579114,776.0
20.343839680,832.0
20.370100245,744.0
20.396360810,783.0
20.422621375,827.0
20.448881940,826.0
20.475142505,798.0
20.501403070,840.0
20.527663635,859.0
20.553924200,869.0
20.580184765,842.0
20.606445330,860.0
20.632705895,892.0
20.658966460,840.0
20.685227025,828.0
20.711487590,849.0
20.737748155,846.0
20.764008720,866.0
20.790269285,841.0
20.816529850,837.0
20.842790415,832.0
20.869050980,804.0
20.895311545,863.0
20.921572110,835.0
20.947832675,830.0
20.974093240,845.0
21.000353805,801.0
21.026614370,843.0
21.052874935,805.0
21.079135500,808.0
21.105396065,856.0
21.131656630,875.0
21.157917195,847.0
21.184177760,829.0
21.210438325,823.0
21.236698890,839.0
21.262959455,771.0
21.289220020,839.0
21.315480585,794.0
21.341741150,808.0
21.368001715,826.0
21.394262280,866.0
21.420522845,827.0
21.446783410,807.0
21.473043975,830.0
21.499304540,800.0
21.525565105,819.0
21.551825670,808.0
21.578086235,836.0
21.604346800,821.0
21.630607365,842.0
21.656867930,803.0
21.683128495,817.0
21.709389060,817.0
21.735649625,816.0
21.761910190,821.0
21.788170755,788.0
21.814431320,858.0
21.840691885,845.0
21.866952450,849.0
21.893213015,901.0
21.919473580,862.0
21.945734145,851.0
21.971994710,781.0
21.998255275,818.0
22.024515840,858.0
22.050776405,819.0
22.077036970,911.0
22.103297535,783.0
22.129558100,787.0
22.155818665,800.0
22.182079230,899.0
22.208339795,789.0
22.234600360,807.0
22.260860925,833.0
22.287121490,820.0
22.313382055,820.0
22.339642620,842.0
22.365903185,766.0
22.392163750,795.0
22.418424315,891.0
22.444684880,807.0
22.470945445,830.0
22.497206010,902.0
22.523466575,857.0
22.549727140,802.0
22.575987705,838.0
22.602248270,860.0
22.628508835,863.0
22.654769400,876.0
22.681029965,833.0
22.707290530,839.0
22.733551095,835.0
22.759811660,872.0
22.786072225,845.0
22.812332790,829.0
22.838593355,855.0
22.864853920,831.0
22.891114485,787.0
22.917375050,824.0
22.943635615,907.0
22.969896180,857.0
22.996156745,795.0
23.022417310,836.0
23.048677875,841.0
23.074938440,880.0
23.101199005,811.0
23.127459570,810.0
23.153720135,823.0
23.179980700,854.0
23.206241265,911.0
23.232501830,874.0
23.258762395,882.0
23.285022960,843.0
23.311283525,879.0
23.337544090,845.0
23.363804655,890.0
23.390065220,842.0
23.416325785,807.0
23.442586350,869.0
23.468846915,843.0
23.495107480,893.0
23.521368045,867.0
23.547628610,901.0
23.573889175,867.0
23.600149740,884.0
23.626410305,899.0
23.652670870,814.0
23.678931435,863.0
23.705192000,920.0
23.731452566,892.0
23.757713131,871.0
23.783973696,857.0
23.810234261,853.0
23.836494826,911.0
23.862755391,859.0
23.889015956,825.0
23.915276521,928.0
23.941537086,885.0
23.967797651,854.0
23.994058216,866.0
24.020318781,854.0
24.046579346,859.0
24.072839911,889.0
24.099100476,839.0
24.125361041,827.0
24.151621606,875.0
24.177882171,898.0
24.204142736,850.0
24.230403301,891.0
24.256663866,871.0
24.282924431,832.0
24.309184996,918.0
24.335445561,868.0
24.361706126,848.0
24.387966691,842.0
24.414227256,906.0
24.440487821,870.0
24.466748386,896.0
24.493008951,868.0
24.519269516,945.0
24.545530081,913.0
24.571790646,823.0
24.598051211,904.0
24.624311776,870.0
24.650572341,849.0
24.676832906,882.0
24.703093471,828.0
24.729354036,915.0
24.755614601,934.0
24.781875166,881.0
24.808135731,865.0
24.834396296,897.0
24.860656861,878.0
24.886917426,889.0
24.913177991,942.0
24.939438556,908.0
24.965699121,882.0
24.991959686,976.0
25.018220251,922.0
25.044480816,906.0
25.070741381,953.0
25.097001946,881.0
25.123262511,855.0
25.149523076,873.0
25.175783641,926.0
25.202044206,938.0
25.228304771,916.0
25.254565336,921.0
25.280825901,884.0
25.307086466,835.0
25.333347031,930.0
25.359607596,997.0
25.385868161,1023.0
25.412128726,911.0
25.438389291,941.0
25.464649856,1017.0
25.490910421,998.0
25.517170986,1024.0
25.543431551,1114.0
25.569692116,1097.0
25.595952681,1075.0
25.622213246,1115.0
25.648473811,1090.0
25.674734376,1120.0
25.700994941,1130.0
25.727255506,1131.0
25.753516071,1138.0
25.779776636,1117.0
25.806037201,1192.0
25.832297766,1123.0
25.858558331,1175.0
25.884818896,1214.0
25.911079461,1274.0
25.937340026,1359.0
25.963600591,1365.0
25.989861156,1416.0
26.016121721,1529.0
26.042382286,1642.0
26.068642851,1795.0
26.094903416,1904.0
26.121163981,2264.0
26.147424546,2530.0
26.173685111,2926.0
26.199945676,3333.0
26.226206241,3771.0
26.252466806,4255.0
26.278727371,4692.0
26.304987936,5425.0
26.331248501,5863.0
26.357509066,6237.0
26.383769631,6678.0
26.410030196,7124.0
26.436290761,7733.0
26.462551326,7808.0
26.488811891,7861.0
26.515072456,7228.0
26.541333021,6245.0
26.567593586,4997.0
26.593854151,4125.0
26.620114716,3165.0
26.646375281,2534.0
26.672635846,2163.0
26.698896411,1940.0
26.725156976,1699.0
26.751417541,1517.0
26.777678106,1490.0
26.803938671,1351.0
26.830199236,1364.0
26.856459801,1315.0
26.882720366,1263.0
26.908980931,1216.0
26.935241496,1227.0
26.961502061,1107.0
26.987762626,1136.0
27.014023191,1160.0
27.040283756,1072.0
27.066544321,1071.0
27.092804886,1072.0
27.119065451,1013.0
27.145326017,1059.0
27.171586582,1011.0
27.197847147,1076.0
27.224107712,997.0
27.250368277,959.0
27.276628842,1049.0
27.302889407,984.0
27.329149972,1023.0
27.355410537,975.0
27.381671102,958.0
27.407931667,991.0
27.434192232,949.0
27.460452797,899.0
27.486713362,885.0
27.512973927,941.0
27.539234492,921.0
27.565495057,880.0
27.591755622,988.0
27.618016187,897.0
27.644276752,896.0
27.670537317,860.0
27.696797882,907.0
27.723058447,914.0
27.749319012,811.0
27.775579577,883.0
27.801840142,844.0
27.828100707,875.0
27.854361272,855.0
27.880621837,898.0
27.906882402,874.0
27.933142967,803.0
27.959403532,864.0
27.985664097,880.0
28.011924662,821.0
28.038185227,860.0
28.064445792,879.0
28.090706357,866.0
28.116966922,872.0
28.143227487,785.0
28.169488052,866.0
28.195748617,827.0
28.222009182,776.0
28.248269747,760.0
28.274530312,823.0
28.300790877,818.0
28.327051442,842.0
28.353312007,803.0
28.379572572,785.0
28.405833137,910.0
28.432093702,784.0
28.458354267,774.0
28.484614832,786.0
28.510875397,847.0
28.537135962,836.0
28.563396527,799.0
28.589657092,798.0
28.615917657,815.0
28.642178222,831.0
28.668438787,811.0
28.694699352,781.0
28.720959917,798.0
28.747220482,809.0
28.773481047,738.0
28.799741612,798.0
28.826002177,732.0
28.852262742,815.0
28.878523307,751.0
28.904783872,748.0
28.931044437,766.0
28.957305002,720.0
28.983565567,772.0
29.009826132,805.0
29.036086697,762.0
29.062347262,707.0
29.088607827,716.0
29.114868392,737.0
29.141128957,776.0
29.167389522,745.0
29.193650087,753.0
29.219910652,740.0
29.246171217,703.0
29.272431782,762.0
29.298692347,746.0
29.324952912,758.0
29.351213477,768.0
29.377474042,757.0
29.403734607,747.0
29.429995172,817.0
29.456255737,816.0
29.482516302,739.0
29.508776867,764.0
29.535037432,731.0
29.561297997,664.0
29.587558562,766.0
29.613819127,758.0
29.640079692,732.0
29.666340257,781.0
29.692600822,692.0
29.718861387,739.0
29.745121952,793.0
29.771382517,735.0
29.797643082,722.0
29.823903647,708.0
29.850164212,767.0
29.876424777,668.0
29.902685342,733.0
29.928945907,740.0
29.955206472,814.0
29.981467037,721.0
30.007727602,667.0
30.033988167,708.0
30.060248732,705.0
30.086509297,671.0
30.112769862,703.0
30.139030427,682.0
30.165290992,691.0
30.191551557,707.0
30.217812122,708.0
30.244072687,717.0
30.270333252,725.0
30.296593817,729.0
30.322854382,689.0
30.349114947,665.0
30.375375512,672.0
30.401636077,744.0
30.427896642,683.0
30.454157207,692.0
30.480417772,672.0
30.506678337,675.0
30.532938903,644.0
30.559199468,669.0
30.585460033,645.0
30.611720598,680.0
30.637981163,669.0
30.664241728,686.0
30.690502293,644.0
30.716762858,650.0
30.743023423,634.0
30.769283988,644.0
30.795544553,649.0
30.821805118,617.0
30.848065683,688.0
30.874326248,620.0
30.900586813,663.0
30.926847378,602.0
30.953107943,613.0
30.979368508,698.0
31.005629073,628.0
31.031889638,633.0
31.058150203,640.0
31.084410768,599.0
31.110671333,641.0
31.136931898,627.0
31.163192463,699.0
31.189453028,645.0
31.215713593,652.0
31.241974158,593.0
31.268234723,606.0
31.294495288,676.0
31.320755853,618.0
31.347016418,607.0
31.373276983,702.0
31.399537548,625.0
31.425798113,629.0
31.452058678,657.0
31.478319243,638.0
31.504579808,586.0
31.530840373,629.0
31.557100938,589.0
31.583361503,603.0
31.609622068,578.0
31.635882633,597.0
31.662143198,584.0
31.688403763,637.0
31.714664328,555.0
31.740924893,578.0
31.767185458,615.0
31.793446023,600.0
31.819706588,621.0
31.845967153,575.0
31.872227718,566.0
31.898488283,590.0
31.924748848,581.0
31.951009413,618.0
31.977269978,565.0
32.003530543,645.0
32.029791108,626.0
32.056051673,596.0
32.082312238,581.0
32.108572803,604.0
32.134833368,613.0
32.161093933,609.0
32.187354498,591.0
32.213615063,588.0
32.239875628,582.0
32.266136193,586.0
32.292396758,627.0
32.318657323,637.0
32.344917888,590.0
32.371178453,567.0
32.397439018,587.0
32.423699583,588.0
32.449960148,604.0
32.476220713,593.0
32.502481278,630.0
32.528741843,601.0
32.555002408,584.0
32.581262973,636.0
32.607523538,556.0
32.633784103,580.0
32.660044668,549.0
32.686305233,586.0
32.712565798,621.0
32.738826363,570.0
32.765086928,623.0
32.791347493,612.0
32.817608058,533.0
32.843868623,596.0
32.870129188,583.0
32.896389753,578.0
32.922650318,549.0
32.948910883,601.0
32.975171448,590.0
33.001432013,579.0
33.027692578,615.0
33.053953143,605.0
33.080213708,573.0
33.106474273,582.0
33.132734838,582.0
33.158995403,576.0
33.185255968,609.0
33.211516533,578.0
33.237777098,538.0
33.264037663,594.0
33.290298228,603.0
33.316558793,551.0
33.342819358,555.0
33.369079923,519.0
33.395340488,556.0
33.421601053,592.0
33.447861618,567.0
33.474122183,529.0
33.500382748,575.0
33.526643313,575.0
33.552903878,504.0
33.579164443,582.0
33.605425008,522.0
33.631685573,505.0
33.657946138,531.0
33.684206703,540.0
33.710467268,519.0
33.736727833,527.0
33.762988398,542.0
33.789248963,502.0
33.815509528,523.0
33.841770093,595.0
33.868030658,547.0
33.894291223,531.0
33.920551789,563.0
33.946812354,504.0
33.973072919,540.0
33.999333484,561.0
34.025594049,517.0
34.051854614,550.0
34.078115179,480.0
34.104375744,545.0
34.130636309,485.0
34.156896874,547.0
34.183157439,547.0
34.209418004,525.0
34.235678569,579.0
34.261939134,508.0
34.288199699,551.0
34.314460264,552.0
34.340720829,519.0
34.366981394,533.0
34.393241959,565.0
34.419502524,534.0
34.445763089,534.0
34.472023654,545.0
34.498284219,516.0
34.524544784,498.0
34.550805349,534.0
34.577065914,527.0
34.603326479,525.0
34.629587044,563.0
34.655847609,550.0
34.682108174,499.0
34.708368739,548.0
34.734629304,526.0
34.760889869,565.0
34.787150434,532.0
34.813410999,547.0
34.839671564,560.0
34.865932129,533.0
34.892192694,542.0
34.918453259,490.0
34.944713824,539.0
34.970974389,559.0
34.997234954,531.0
35.023495519,531.0
35.049756084,503.0
35.076016649,502.0
35.102277214,540.0
35.128537779,504.0
35.154798344,551.0
35.181058909,527.0
35.207319474,576.0
35.233580039,569.0
35.259840604,517.0
35.286101169,497.0
35.312361734,528.0
35.338622299,536.0
35.364882864,542.0
35.391143429,528.0
35.417403994,531.0
35.443664559,595.0
35.469925124,552.0
35.496185689,571.0
35.522446254,527.0
35.548706819,555.0
35.574967384,547.0
35.601227949,572.0
35.627488514,514.0
35.653749079,533.0
35.680009644,539.0
35.706270209,527.0
35.732530774,531.0
35.758791339,552.0
35.785051904,547.0
35.811312469,555.0
35.837573034,574.0
35.863833599,565.0
35.890094164,590.0
35.916354729,565.0
35.942615294,575.0
35.968875859,563.0
35.995136424,552.0
36.021396989,544.0
36.047657554,582.0
36.073918119,573.0
36.100178684,584.0
36.126439249,534.0
36.152699814,530.0
36.178960379,563.0
36.205220944,531.0
36.231481509,563.0
36.257742074,601.0
36.284002639,573.0
36.310263204,586.0
36.336523769,632.0
36.362784334,580.0
36.389044899,545.0
36.415305464,609.0
36.441566029,554.0
36.467826594,538.0
36.494087159,552.0
36.520347724,512.0
36.546608289,572.0
36.572868854,549.0
36.599129419,569.0
36.625389984,519.0
36.651650549,583.0
36.677911114,597.0
36.704171679,586.0
36.730432244,525.0
36.756692809,652.0
36.782953374,563.0
36.809213939,596.0
36.835474504,569.0
36.861735069,625.0
36.887995634,601.0
36.914256199,612.0
36.940516764,575.0
36.966777329,583.0
36.993037894,539.0
37.019298459,604.0
37.045559024,559.0
37.071819589,632.0
37.098080154,590.0
37.124340719,602.0
37.150601284,581.0
37.176861849,604.0
37.203122414,584.0
37.229382979,586.0
37.255643544,636.0
37.281904109,607.0
37.308164674,602.0
37.334425240,620.0
37.360685805,600.0
37.386946370,586.0
37.413206935,602.0
37.439467500,628.0
37.465728065,575.0
37.491988630,565.0
37.518249195,590.0
37.544509760,587.0
37.570770325,594.0
37.597030890,619.0
37.623291455,604.0
37.649552020,591.0
37.675812585,594.0
37.702073150,629.0
37.728333715,610.0
37.754594280,575.0
37.780854845,631.0
37.807115410,567.0
37.833375975,613.0
37.859636540,605.0
37.885897105,607.0
37.912157670,615.0
37.938418235,615.0
37.964678800,639.0
37.990939365,628.0
38.017199930,645.0
38.043460495,631.0
38.069721060,627.0
38.095981625,651.0
38.122242190,645.0
38.148502755,669.0
38.174763320,624.0
38.201023885,643.0
38.227284450,633.0
38.253545015,659.0
38.279805580,616.0
38.306066145,660.0
38.332326710,626.0
38.358587275,650.0
38.384847840,633.0
38.411108405,700.0
38.437368970,689.0
38.463629535,724.0
38.489890100,673.0
38.516150665,668.0
38.542411230,674.0
38.568671795,636.0
38.594932360,685.0
38.621192925,676.0
38.647453490,628.0
38.673714055,717.0
38.699974620,684.0
38.726235185,676.0
38.752495750,743.0
38.778756315,754.0
38.805016880,741.0
38.831277445,727.0
38.857538010,680.0
38.883798575,772.0
38.910059140,770.0
38.936319705,749.0
38.962580270,717.0
38.988840835,784.0
39.015101400,748.0
39.041361965,847.0
39.067622530,785.0
39.093883095,799.0
39.120143660,833.0
39.146404225,783.0
39.172664790,780.0
39.198925355,884.0
39.225185920,799.0
39.251446485,831.0
39.277707050,793.0
39.303967615,856.0
39.330228180,840.0
39.356488745,898.0
39.382749310,909.0
39.409009875,862.0
39.435270440,924.0
39.461531005,858.0
39.487791570,886.0
39.514052135,846.0
39.540312700,947.0
39.566573265,981.0
39.592833830,1035.0
39.619094395,987.0
39.645354960,1019.0
39.671615525,972.0
39.697876090,1045.0
39.724136655,1072.0
39.750397220,1053.0
39.776657785,1063.0
39.802918350,1104.0
39.829178915,1117.0
39.855439480,1187.0
39.881700045,1162.0
39.907960610,1229.0
39.934221175,1275.0
39.960481740,1273.0
39.986742305,1301.0
40.013002870,1290.0
40.039263435,1361.0
40.065524000,1343.0
40.091784565,1481.0
40.118045130,1498.0
40.144305695,1495.0
40.170566260,1588.0
40.196826825,1574.0
40.223087390,1649.0
40.249347955,1610.0
40.275608520,1701.0
40.301869085,1706.0
40.328129650,1701.0
40.354390215,1809.0
40.380650780,1659.0
40.406911345,1719.0
40.433171910,1793.0
40.459432475,1842.0
40.485693040,1858.0
40.511953605,1745.0
40.538214170,1876.0
40.564474735,1855.0
40.590735300,1830.0
40.616995865,1835.0
40.643256430,1823.0
40.669516995,1868.0
40.695777560,1851.0
40.722038126,1810.0
40.748298691,1887.0
40.774559256,1869.0
40.800819821,1896.0
40.827080386,1860.0
40.853340951,1860.0
40.879601516,1884.0
40.905862081,1925.0
40.932122646,1838.0
40.958383211,1873.0
40.984643776,1891.0
41.010904341,1719.0
41.037164906,1841.0
41.063425471,1834.0
41.089686036,1879.0
41.115946601,1933.0
41.142207166,1793.0
41.168467731,1861.0
41.194728296,1820.0
41.220988861,1832.0
41.247249426,1909.0
41.273509991,1794.0
41.299770556,1747.0
41.326031121,1727.0
41.352291686,1808.0
41.378552251,1796.0
41.404812816,1846.0
41.431073381,1799.0
41.457333946,1712.0
41.483594511,1797.0
41.509855076,1690.0
41.536115641,1757.0
41.562376206,1758.0
41.588636771,1714.0
41.614897336,1718.0
41.641157901,1718.0
41.667418466,1762.0
41.693679031,1732.0
41.719939596,1744.0
41.746200161,1740.0
41.772460726,1699.0
41.798721291,1717.0
41.824981856,1713.0
41.851242421,1652.0
41.877502986,1700.0
41.903763551,1703.0
41.930024116,1690.0
41.956284681,1646.0
41.982545246,1630.0
42.008805811,1593.0
42.035066376,1665.0
42.061326941,1688.0
42.087587506,1597.0
42.113848071,1720.0
42.140108636,1787.0
42.166369201,1709.0
42.192629766,1674.0
42.218890331,1661.0
42.245150896,1688.0
42.271411461,1721.0
42.297672026,1777.0
42.323932591,1730.0
42.350193156,1711.0
42.376453721,1700.0
42.402714286,1685.0
42.428974851,1696.0
42.455235416,1638.0
42.481495981,1575.0
42.507756546,1626.0
42.534017111,1614.0
42.560277676,1609.0
42.586538241,1527.0
42.612798806,1529.0
42.639059371,1519.0
42.665319936,1633.0
42.691580501,1523.0
42.717841066,1531.0
42.744101631,1488.0
42.770362196,1488.0
42.796622761,1548.0
42.822883326,1440.0
42.849143891,1516.0
42.875404456,1441.0
42.901665021,1426.0
42.927925586,1434.0
42.954186151,1471.0
42.980446716,1451.0
43.006707281,1378.0
43.032967846,1442.0
43.059228411,1509.0
43.085488976,1481.0
43.111749541,1458.0
43.138010106,1529.0
43.164270671,1510.0
43.190531236,1534.0
43.216791801,1543.0
43.243052366,1522.0
43.269312931,1497.0
43.295573496,1533.0
43.321834061,1482.0
43.348094626,1521.0
43.374355191,1392.0
43.400615756,1369.0
43.426876321,1376.0
43.453136886,1381.0
43.479397451,1403.0
43.505658016,1327.0
43.531918581,1356.0
43.558179146,1275.0
43.584439711,1300.0
43.610700276,1323.0
43.636960841,1255.0
43.663221406,1294.0
43.689481971,1340.0
43.715742536,1275.0
43.742003101,1284.0
43.768263666,1251.0
43.794524231,1235.0
43.820784796,1202.0
43.847045361,1245.0
43.873305926,1193.0
43.899566491,1258.0
43.925827056,1205.0
43.952087621,1245.0
43.978348186,1237.0
44.004608751,1216.0
44.030869316,1152.0
44.057129881,1151.0
44.083390446,1235.0
44.109651011,1241.0
44.135911577,1196.0
44.162172142,1180.0
44.188432707,1174.0
44.214693272,1227.0
44.240953837,1148.0
44.267214402,1181.0
44.293474967,1328.0
44.319735532,1252.0
44.345996097,1285.0
44.372256662,1363.0
44.398517227,1334.0
44.424777792,1265.0
44.451038357,1324.0
44.477298922,1371.0
44.503559487,1333.0
44.529820052,1282.0
44.556080617,1250.0
44.582341182,1272.0
44.608601747,1213.0
44.634862312,1167.0
44.661122877,1069.0
44.687383442,1069.0
44.713644007,1131.0
44.739904572,1073.0
44.766165137,968.0
44.792425702,1068.0
44.818686267,1058.0
44.844946832,1030.0
44.871207397,990.0
44.897467962,985.0
44.923728527,972.0
44.949989092,948.0
44.976249657,948.0
45.002510222,976.0
45.028770787,926.0
45.055031352,966.0
45.081291917,860.0
45.107552482,993.0
45.133813047,946.0
45.160073612,895.0
45.186334177,926.0
45.212594742,860.0
45.238855307,850.0
45.265115872,886.0
45.291376437,894.0
45.317637002,926.0
45.343897567,861.0
45.370158132,831.0
45.396418697,893.0
45.422679262,883.0
45.448939827,858.0
45.475200392,878.0
45.501460957,830.0
45.527721522,874.0
45.553982087,805.0
45.580242652,874.0
45.606503217,876.0
45.632763782,839.0
45.659024347,842.0
45.685284912,847.0
45.711545477,794.0
45.737806042,844.0
45.764066607,768.0
45.790327172,821.0
45.816587737,846.0
45.842848302,871.0
45.869108867,818.0
45.895369432,846.0
45.921629997,835.0
45.947890562,873.0
45.974151127,806.0
46.000411692,833.0
46.026672257,852.0
46.052932822,850.0
46.079193387,880.0
46.105453952,849.0
46.131714517,817.0
46.157975082,820.0
46.184235647,841.0
46.210496212,825.0
46.236756777,743.0
46.263017342,808.0
46.289277907,760.0
46.315538472,740.0
46.341799037,767.0
46.368059602,740.0
46.394320167,718.0
46.420580732,700.0
46.446841297,745.0
46.473101862,746.0
46.499362427,689.0
46.525622992,718.0
46.551883557,718.0
46.578144122,702.0
46.604404687,717.0
46.630665252,712.0
46.656925817,695.0
46.683186382,681.0
46.709446947,686.0
46.735707512,636.0
46.761968077,654.0
46.788228642,638.0
46.814489207,648.0
46.840749772,638.0
46.867010337,679.0
46.893270902,625.0
46.919531467,654.0
46.945792032,633.0
46.972052597,613.0
46.998313162,649.0
47.024573727,659.0
47.050834292,639.0
47.077094857,629.0
47.103355422,615.0
47.129615987,620.0
47.155876552,618.0
47.182137117,617.0
47.208397682,605.0
47.234658247,627.0
47.260918812,631.0
47.287179377,601.0
47.313439942,575.0
47.339700507,627.0
47.365961072,608.0
47.392221637,637.0
47.418482202,554.0
47.444742767,613.0
47.471003332,551.0
47.497263897,574.0
47.523524463,616.0
47.549785028,610.0
47.576045593,568.0
47.602306158,558.0
47.628566723,605.0
47.654827288,585.0
47.681087853,590.0
47.707348418,550.0
47.733608983,563.0
47.759869548,562.0
47.786130113,572.0
47.812390678,580.0
47.838651243,588.0
47.864911808,601.0
47.891172373,541.0
47.917432938,586.0
47.943693503,599.0
47.969954068,546.0
47.996214633,553.0
48.022475198,592.0
48.048735763,539.0
48.074996328,544.0
48.101256893,518.0
48.127517458,575.0
48.153778023,594.0
48.180038588,496.0
48.206299153,533.0
48.232559718,506.0
48.258820283,504.0
48.285080848,532.0
48.311341413,538.0
48.337601978,496.0
48.363862543,531.0
48.390123108,524.0
48.416383673,506.0
48.442644238,504.0
48.468904803,489.0
48.495165368,566.0
48.521425933,546.0
48.547686498,523.0
48.573947063,506.0
48.600207628,478.0
48.626468193,535.0
48.652728758,481.0
48.678989323,504.0
48.705249888,493.0
48.731510453,509.0
48.757771018,526.0
48.784031583,502.0
48.810292148,516.0
48.836552713,548.0
48.862813278,498.0
48.889073843,490.0
48.915334408,496.0
48.941594973,518.0
48.967855538,474.0
48.994116103,505.0
49.020376668,469.0
49.046637233,501.0
49.072897798,474.0
49.099158363,447.0
49.125418928,467.0
49.151679493,488.0
49.177940058,448.0
49.204200623,458.0
49.230461188,475.0
49.256721753,454.0
49.282982318,490.0
49.309242883,401.0
49.335503448,497.0
49.361764013,469.0
49.388024578,508.0
49.414285143,468.0
49.440545708,482.0
49.466806273,500.0
49.493066838,493.0
49.519327403,518.0
49.545587968,441.0
49.571848533,456.0
49.598109098,464.0
49.624369663,426.0
49.650630228,429.0
49.676890793,484.0
49.703151358,475.0
49.729411923,454.0
49.755672488,446.0
49.781933053,463.0
49.808193618,448.0
49.834454183,472.0
49.860714748,462.0
49.886975313,460.0
49.913235878,467.0
49.939496443,471.0
49.965757008,418.0
49.992017573,480.0
50.018278138,452.0
50.044538703,462.0
50.070799268,475.0
50.097059833,428.0
50.123320398,437.0
50.149580963,433.0
50.175841528,440.0
50.202102093,477.0
50.228362658,431.0
50.254623223,418.0
50.280883788,440.0
50.307144353,414.0
50.333404918,442.0
50.359665483,425.0
50.385926048,448.0
50.412186613,438.0
50.438447178,488.0
50.464707743,425.0
50.490968308,450.0
50.517228873,451.0
50.543489438,417.0
50.569750003,446.0
50.596010568,388.0
50.622271133,449.0
50.648531698,429.0
50.674792263,463.0
50.701052828,454.0
50.727313393,468.0
50.753573958,393.0
50.779834523,425.0
50.806095088,473.0
50.832355653,446.0
50.858616218,408.0
50.884876783,417.0
50.911137349,451.0
50.937397914,431.0
50.963658479,453.0
50.989919044,392.0
51.016179609,451.0
51.042440174,438.0
51.068700739,450.0
51.094961304,389.0
51.121221869,458.0
51.147482434,419.0
51.173742999,432.0
51.200003564,378.0
51.226264129,356.0
51.252524694,399.0
51.278785259,392.0
51.305045824,415.0
51.331306389,404.0
51.357566954,370.0
51.383827519,388.0
51.410088084,383.0
51.436348649,385.0
51.462609214,356.0
51.488869779,402.0
51.515130344,369.0
51.541390909,409.0
51.567651474,411.0
51.593912039,370.0
51.620172604,406.0
51.646433169,394.0
51.672693734,412.0
51.698954299,379.0
51.725214864,454.0
51.751475429,418.0
51.777735994,360.0
51.803996559,372.0
51.830257124,403.0
51.856517689,411.0
51.882778254,404.0
51.909038819,385.0
51.935299384,385.0
51.961559949,392.0
51.987820514,407.0
52.014081079,367.0
52.040341644,377.0
52.066602209,354.0
52.092862774,347.0
52.119123339,394.0
52.145383904,368.0
52.171644469,382.0
52.197905034,406.0
52.224165599,377.0
52.250426164,315.0
52.276686729,354.0
52.302947294,333.0
52.329207859,408.0
52.355468424,397.0
52.381728989,383.0
52.407989554,374.0
52.434250119,355.0
52.460510684,389.0
52.486771249,344.0
52.513031814,375.0
52.539292379,360.0
52.565552944,352.0
52.591813509,384.0
52.618074074,384.0
52.644334639,371.0
52.670595204,389.0
52.696855769,417.0
52.723116334,378.0
52.749376899,370.0
52.775637464,353.0
52.801898029,351.0
52.828158594,400.0
52.854419159,370.0
52.880679724,398.0
52.906940289,376.0
52.933200854,378.0
52.959461419,400.0
52.985721984,393.0
53.011982549,366.0
53.038243114,360.0
53.064503679,393.0
53.090764244,380.0
53.117024809,385.0
53.143285374,421.0
53.169545939,406.0
53.195806504,402.0
53.222067069,404.0
53.248327634,365.0
53.274588199,395.0
53.300848764,433.0
53.327109329,398.0
53.353369894,343.0
53.379630459,401.0
53.405891024,382.0
53.432151589,388.0
53.458412154,381.0
53.484672719,362.0
53.510933284,321.0
53.537193849,389.0
53.563454414,364.0
53.589714979,394.0
53.615975544,377.0
53.642236109,411.0
53.668496674,394.0
53.694757239,424.0
53.721017804,399.0
53.747278369,432.0
53.773538934,379.0
53.799799499,378.0
53.826060064,404.0
53.852320629,386.0
53.878581194,382.0
53.904841759,384.0
53.931102324,361.0
53.957362889,398.0
53.983623454,346.0
54.009884019,409.0
54.036144584,389.0
54.062405149,425.0
54.088665714,388.0
54.114926279,388.0
54.141186844,426.0
54.167447409,406.0
54.193707974,402.0
54.219968539,427.0
54.246229104,450.0
54.272489669,431.0
54.298750234,464.0
54.325010800,460.0
54.351271365,474.0
54.377531930,489.0
54.403792495,551.0
54.430053060,565.0
54.456313625,556.0
54.482574190,630.0
54.508834755,597.0
54.535095320,602.0
54.561355885,620.0
54.587616450,603.0
54.613877015,637.0
54.640137580,629.0
54.666398145,587.0
54.692658710,571.0
54.718919275,521.0
54.745179840,517.0
54.771440405,498.0
54.797700970,512.0
54.823961535,501.0
54.850222100,455.0
54.876482665,444.0
54.902743230,429.0
54.929003795,403.0
54.955264360,418.0
54.981524925,386.0
55.007785490,434.0
55.034046055,400.0
55.060306620,397.0
55.086567185,366.0
55.112827750,332.0
55.139088315,374.0
55.165348880,338.0
55.191609445,342.0
55.217870010,390.0
55.244130575,411.0
55.270391140,372.0
55.296651705,379.0
55.322912270,374.0
55.349172835,350.0
55.375433400,357.0
55.401693965,384.0
55.427954530,377.0
55.454215095,366.0
55.480475660,341.0
55.506736225,354.0
55.532996790,411.0
55.559257355,369.0
55.585517920,377.0
55.611778485,394.0
55.638039050,371.0
55.664299615,357.0
55.690560180,405.0
55.716820745,373.0
55.743081310,373.0
55.769341875,385.0
55.795602440,356.0
55.821863005,371.0
55.848123570,368.0
55.874384135,342.0
55.900644700,348.0
55.926905265,340.0
55.953165830,350.0
55.979426395,384.0
56.005686960,335.0
56.031947525,329.0
56.058208090,360.0
56.084468655,401.0
56.110729220,345.0
56.136989785,357.0
56.163250350,378.0
56.189510915,376.0
56.215771480,362.0
56.242032045,364.0
56.268292610,390.0
56.294553175,340.0
56.320813740,405.0
56.347074305,362.0
56.373334870,398.0
56.399595435,390.0
56.425856000,371.0
56.452116565,410.0
56.478377130,421.0
56.504637695,370.0
56.530898260,367.0
56.557158825,341.0
56.583419390,376.0
56.609679955,360.0
56.635940520,391.0
56.662201085,380.0
56.688461650,333.0
56.714722215,338.0
56.740982780,357.0
56.767243345,364.0
56.793503910,345.0
56.819764475,387.0
56.846025040,364.0
56.872285605,346.0
56.898546170,353.0
56.924806735,335.0
56.951067300,356.0
56.977327865,313.0
57.003588430,360.0
57.029848995,332.0
57.056109560,366.0
57.082370125,372.0
57.108630690,347.0
57.134891255,371.0
57.161151820,375.0
57.187412385,364.0
57.213672950,408.0
57.239933515,376.0
57.266194080,355.0
57.292454645,394.0
57.318715210,377.0
57.344975775,360.0
57.371236340,337.0
57.397496905,346.0
57.423757470,360.0
57.450018035,325.0
57.476278600,344.0
57.502539165,346.0
57.528799730,343.0
57.555060295,357.0
57.581320860,370.0
57.607581425,361.0
57.633841990,358.0
57.660102555,371.0
57.686363120,401.0
57.712623686,384.0
57.738884251,391.0
57.765144816,351.0
57.791405381,367.0
57.817665946,356.0
57.843926511,336.0
57.870187076,360.0
57.896447641,344.0
57.922708206,394.0
57.948968771,337.0
57.975229336,358.0
58.001489901,365.0
58.027750466,345.0
58.054011031,339.0
58.080271596,361.0
58.106532161,361.0
58.132792726,383.0
58.159053291,379.0
58.185313856,341.0
58.211574421,360.0
58.237834986,335.0
58.264095551,364.0
58.290356116,370.0
58.316616681,355.0
58.342877246,360.0
58.369137811,377.0
58.395398376,370.0
58.421658941,329.0
58.447919506,368.0
58.474180071,349.0
58.500440636,356.0
58.526701201,395.0
58.552961766,344.0
58.579222331,361.0
58.605482896,361.0
58.631743461,332.0
58.658004026,389.0
58.684264591,361.0
58.710525156,330.0
58.736785721,355.0
58.763046286,341.0
58.789306851,337.0
58.815567416,340.0
58.841827981,372.0
58.868088546,360.0
58.894349111,390.0
58.920609676,330.0
58.946870241,334.0
58.973130806,326.0
58.999391371,333.0
59.025651936,359.0
59.051912501,365.0
59.078173066,363.0
59.104433631,315.0
59.130694196,347.0
59.156954761,352.0
59.183215326,357.0
59.209475891,333.0
59.235736456,405.0
59.261997021,359.0
59.288257586,360.0
59.314518151,378.0
59.340778716,349.0
59.367039281,361.0
59.393299846,354.0
59.419560411,345.0
59.445820976,377.0
59.472081541,369.0
59.498342106,331.0
59.524602671,361.0
59.550863236,341.0
59.577123801,341.0
59.603384366,365.0
59.629644931,383.0
59.655905496,423.0
59.682166061,382.0
59.708426626,373.0
59.734687191,373.0
59.760947756,380.0
59.787208321,358.0
59.813468886,383.0
59.839729451,338.0
59.865990016,414.0
59.892250581,357.0
59.918511146,364.0
59.944771711,402.0
59.971032276,360.0
59.997292841,370.0
60.023553406,366.0
60.049813971,359.0
60.076074536,347.0
60.102335101,340.0
60.128595666,379.0
60.154856231,366.0
60.181116796,364.0
60.207377361,342.0
60.233637926,368.0
60.259898491,365.0
60.286159056,354.0
60.312419621,357.0
60.338680186,352.0
60.364940751,339.0
60.391201316,362.0
60.417461881,343.0
60.443722446,355.0
60.469983011,358.0
60.496243576,339.0
60.522504141,358.0
60.548764706,343.0
60.575025271,327.0
60.601285836,371.0
60.627546401,350.0
60.653806966,323.0
60.680067531,337.0
60.706328096,376.0
60.732588661,332.0
60.758849226,331.0
60.785109791,339.0
60.811370356,333.0
60.837630921,331.0
60.863891486,343.0
60.890152051,346.0
60.916412616,342.0
60.942673181,321.0
60.968933746,321.0
60.995194311,344.0
61.021454876,334.0
61.047715441,316.0
61.073976006,354.0
61.100236571,337.0
61.126497137,330.0
61.152757702,329.0
61.179018267,333.0
61.205278832,351.0
61.231539397,308.0
61.257799962,324.0
61.284060527,340.0
61.310321092,305.0
61.336581657,352.0
61.362842222,332.0
61.389102787,349.0
61.415363352,318.0
61.441623917,337.0
61.467884482,303.0
61.494145047,336.0
61.520405612,295.0
61.546666177,344.0
61.572926742,327.0
61.599187307,330.0
61.625447872,379.0
61.651708437,329.0
61.677969002,332.0
61.704229567,310.0
61.730490132,314.0
61.756750697,318.0
61.783011262,343.0
61.809271827,287.0
61.835532392,326.0
61.861792957,306.0
61.888053522,316.0
61.914314087,346.0
61.940574652,312.0
61.966835217,329.0
61.993095782,350.0
62.019356347,271.0
62.045616912,320.0
62.071877477,314.0
62.098138042,343.0
62.124398607,341.0
62.150659172,316.0
62.176919737,325.0
62.203180302,348.0
62.229440867,329.0
62.255701432,345.0
62.281961997,331.0
62.308222562,375.0
62.334483127,343.0
62.360743692,330.0
62.387004257,345.0
62.413264822,328.0
62.439525387,312.0
62.465785952,318.0
62.492046517,316.0
62.518307082,333.0
62.544567647,323.0
62.570828212,308.0
62.597088777,324.0
62.623349342,342.0
62.649609907,302.0
62.675870472,295.0
62.702131037,337.0
62.728391602,308.0
62.754652167,326.0
62.780912732,332.0
62.807173297,350.0
62.833433862,321.0
62.859694427,314.0
62.885954992,315.0
62.912215557,351.0
62.938476122,290.0
62.964736687,324.0
62.990997252,336.0
63.017257817,339.0
63.043518382,309.0
63.069778947,293.0
63.096039512,307.0
63.122300077,323.0
63.148560642,299.0
63.174821207,315.0
63.201081772,297.0
63.227342337,297.0
63.253602902,329.0
63.279863467,317.0
63.306124032,311.0
63.332384597,293.0
63.358645162,338.0
63.384905727,314.0
63.411166292,344.0
63.437426857,338.0
63.463687422,310.0
63.489947987,333.0
63.516208552,317.0
63.542469117,338.0
63.568729682,347.0
63.594990247,324.0
63.621250812,300.0
63.647511377,305.0
63.673771942,331.0
63.700032507,319.0
63.726293072,306.0
63.752553637,340.0
63.778814202,312.0
63.805074767,283.0
63.831335332,324.0
63.857595897,304.0
63.883856462,293.0
63.910117027,315.0
63.936377592,312.0
63.962638157,328.0
63.988898722,277.0
64.015159287,317.0
64.041419852,282.0
64.067680417,288.0
64.093940982,330.0
64.120201547,306.0
64.146462112,302.0
64.172722677,304.0
64.198983242,307.0
64.225243807,294.0
64.251504372,299.0
64.277764937,281.0
64.304025502,342.0
64.330286067,322.0
64.356546632,313.0
64.382807197,318.0
64.409067762,336.0
64.435328327,311.0
64.461588892,326.0
64.487849457,317.0
64.514110023,274.0
64.540370588,258.0
64.566631153,312.0
64.592891718,289.0
64.619152283,294.0
64.645412848,288.0
64.671673413,274.0
64.697933978,275.0
64.724194543,251.0
64.750455108,325.0
64.776715673,303.0
64.802976238,295.0
64.829236803,342.0
64.855497368,311.0
64.881757933,309.0
64.908018498,265.0
64.934279063,302.0
64.960539628,276.0
64.986800193,249.0
65.013060758,253.0
65.039321323,309.0
65.065581888,292.0
65.091842453,303.0
65.118103018,282.0
65.144363583,283.0
65.170624148,297.0
65.196884713,277.0
65.223145278,260.0
65.249405843,329.0
65.275666408,283.0
65.301926973,286.0
65.328187538,270.0
65.354448103,270.0
65.380708668,331.0
65.406969233,295.0
65.433229798,302.0
65.459490363,298.0
65.485750928,263.0
65.512011493,261.0
65.538272058,279.0
65.564532623,284.0
65.590793188,311.0
65.617053753,293.0
65.643314318,259.0
65.669574883,278.0
65.695835448,280.0
65.722096013,272.0
65.748356578,292.0
65.774617143,276.0
65.800877708,278.0
65.827138273,285.0
65.853398838,274.0
65.879659403,287.0
65.905919968,280.0
65.932180533,281.0
65.958441098,263.0
65.984701663,327.0
66.010962228,286.0
66.037222793,284.0
66.063483358,252.0
66.089743923,289.0
66.116004488,294.0
66.142265053,279.0
66.168525618,294.0
66.194786183,262.0
66.221046748,271.0
66.247307313,282.0
66.273567878,254.0
66.299828443,261.0
66.326089008,300.0
66.352349573,290.0
66.378610138,301.0
66.404870703,296.0
66.431131268,301.0
66.457391833,290.0
66.483652398,270.0
66.509912963,299.0
66.536173528,279.0
66.562434093,268.0
66.588694658,271.0
66.614955223,271.0
66.641215788,287.0
66.667476353,282.0
66.693736918,294.0
66.719997483,293.0
66.746258048,300.0
66.772518613,302.0
66.798779178,286.0
66.825039743,272.0
66.851300308,284.0
66.877560873,272.0
66.903821438,291.0
66.930082003,313.0
66.956342568,304.0
66.982603133,317.0
67.008863698,266.0
67.035124263,260.0
67.061384828,282.0
67.087645393,289.0
67.113905958,300.0
67.140166523,278.0
67.166427088,285.0
67.192687653,305.0
67.218948218,297.0
67.245208783,294.0
67.271469348,270.0
67.297729913,288.0
67.323990478,276.0
67.350251043,294.0
67.376511608,279.0
67.402772173,280.0
67.429032738,250.0
67.455293303,269.0
67.481553868,272.0
67.507814433,279.0
67.534074998,276.0
67.560335563,294.0
67.586596128,268.0
67.612856693,254.0
67.639117258,281.0
67.665377823,282.0
67.691638388,313.0
67.717898953,282.0
67.744159518,280.0
67.770420083,261.0
67.796680648,293.0
67.822941213,238.0
67.849201778,244.0
67.875462343,304.0
67.901722909,287.0
67.927983474,255.0
67.954244039,275.0
67.980504604,286.0
68.006765169,308.0
68.033025734,252.0
68.059286299,285.0
68.085546864,292.0
68.111807429,311.0
68.138067994,275.0
68.164328559,305.0
68.190589124,288.0
68.216849689,288.0
68.243110254,299.0
68.269370819,299.0
68.295631384,278.0
68.321891949,284.0
68.348152514,269.0
68.374413079,266.0
68.400673644,274.0
68.426934209,297.0
68.453194774,296.0
68.479455339,269.0
68.505715904,276.0
68.531976469,259.0
68.558237034,290.0
68.584497599,291.0
68.610758164,259.0
68.637018729,252.0
68.663279294,258.0
68.689539859,262.0
68.715800424,275.0
68.742060989,252.0
68.768321554,266.0
68.794582119,273.0
68.820842684,258.0
68.847103249,275.0
68.873363814,256.0
68.899624379,266.0
68.925884944,254.0
68.952145509,268.0
68.978406074,253.0
69.004666639,259.0
69.030927204,263.0
69.057187769,288.0
69.083448334,281.0
69.109708899,252.0
69.135969464,251.0
69.162230029,266.0
69.188490594,243.0
69.214751159,276.0
69.241011724,267.0
69.267272289,308.0
69.293532854,284.0
69.319793419,251.0
69.346053984,252.0
69.372314549,293.0
69.398575114,247.0
69.424835679,241.0
69.451096244,271.0
69.477356809,281.0
69.503617374,279.0
69.529877939,285.0
69.556138504,250.0
69.582399069,242.0
69.608659634,264.0
69.634920199,253.0
69.661180764,264.0
69.687441329,271.0
69.713701894,258.0
69.739962459,278.0
69.766223024,276.0
69.792483589,281.0
69.818744154,270.0
69.845004719,279.0
69.871265284,255.0
69.897525849,251.0
69.923786414,248.0
69.950046979,265.0
69.976307544,275.0
70.002568109,238.0
70.028828674,277.0
70.055089239,283.0
70.081349804,291.0
70.107610369,261.0
70.133870934,271.0
70.160131499,275.0
70.186392064,298.0
70.212652629,268.0
70.238913194,298.0
70.265173759,287.0
70.291434324,286.0
70.317694889,290.0
70.343955454,310.0
70.370216019,287.0
70.396476584,258.0
70.422737149,260.0
70.448997714,254.0
70.475258279,290.0
70.501518844,307.0
70.527779409,262.0
70.554039974,278.0
70.580300539,251.0
70.606561104,299.0
70.632821669,271.0
70.659082234,307.0
70.685342799,255.0
70.711603364,274.0
70.737863929,291.0
70.764124494,275.0
70.790385059,287.0
70.816645624,277.0
70.842906189,261.0
70.869166754,285.0
70.895427319,266.0
70.921687884,281.0
70.947948449,268.0
70.974209014,264.0
71.000469579,294.0
71.026730144,306.0
71.052990709,268.0
71.079251274,301.0
71.105511839,291.0
71.131772404,298.0
71.158032969,282.0
71.184293534,297.0
71.210554099,300.0
71.236814664,273.0
71.263075229,247.0
71.289335794,285.0
71.315596360,283.0
71.341856925,259.0
71.368117490,313.0
71.394378055,287.0
71.420638620,274.0
71.446899185,259.0
71.473159750,269.0
71.499420315,253.0
71.525680880,265.0
71.551941445,292.0
71.578202010,281.0
71.604462575,296.0
71.630723140,279.0
71.656983705,278.0
71.683244270,308.0
71.709504835,317.0
71.735765400,304.0
71.762025965,273.0
71.788286530,269.0
71.814547095,270.0
71.840807660,283.0
71.867068225,300.0
71.893328790,288.0
71.919589355,285.0
71.945849920,323.0
71.972110485,323.0
71.998371050,305.0
72.024631615,288.0
72.050892180,298.0
72.077152745,272.0
72.103413310,294.0
72.129673875,328.0
72.155934440,312.0
72.182195005,334.0
72.208455570,325.0
72.234716135,316.0
72.260976700,329.0
72.287237265,315.0
72.313497830,301.0
72.339758395,300.0
72.366018960,304.0
72.392279525,314.0
72.418540090,312.0
72.444800655,333.0
72.471061220,336.0
72.497321785,338.0
72.523582350,304.0
72.549842915,305.0
72.576103480,329.0
72.602364045,351.0
72.628624610,332.0
72.654885175,319.0
72.681145740,288.0
72.707406305,307.0
72.733666870,351.0
72.759927435,335.0
72.786188000,344.0
72.812448565,345.0
72.838709130,373.0
72.864969695,352.0
72.891230260,418.0
72.917490825,401.0
72.943751390,387.0
72.970011955,343.0
72.996272520,430.0
73.022533085,421.0
73.048793650,392.0
73.075054215,366.0
73.101314780,418.0
73.127575345,428.0
73.153835910,420.0
73.180096475,426.0
73.206357040,401.0
73.232617605,394.0
73.258878170,395.0
73.285138735,386.0
73.311399300,380.0
73.337659865,418.0
73.363920430,445.0
73.390180995,444.0
73.416441560,413.0
73.442702125,405.0
73.468962690,442.0
73.495223255,422.0
73.521483820,453.0
73.547744385,450.0
73.574004950,357.0
73.600265515,403.0
73.626526080,420.0
73.652786645,423.0
73.679047210,424.0
73.705307775,390.0
73.731568340,420.0
73.757828905,417.0
73.784089470,432.0
73.810350035,408.0
73.836610600,415.0
73.862871165,423.0
73.889131730,358.0
73.915392295,387.0
73.941652860,418.0
73.967913425,389.0
73.994173990,373.0
74.020434555,344.0
74.046695120,362.0
74.072955685,368.0
74.099216250,343.0
74.125476815,351.0
74.151737380,340.0
74.177997945,359.0
74.204258510,361.0
74.230519075,335.0
74.256779640,357.0
74.283040205,331.0
74.309300770,357.0
74.335561335,353.0
74.361821900,348.0
74.388082465,331.0
74.414343030,332.0
74.440603595,308.0
74.466864160,355.0
74.493124725,340.0
74.519385290,345.0
74.545645855,344.0
74.571906420,322.0
74.598166985,319.0
74.624427550,365.0
74.650688115,320.0
74.676948680,329.0
74.703209246,320.0
74.729469811,333.0
74.755730376,358.0
74.781990941,314.0
74.808251506,304.0
74.834512071,321.0
74.860772636,338.0
74.887033201,329.0
74.913293766,332.0
74.939554331,317.0
74.965814896,317.0
74.992075461,312.0
75.018336026,326.0
75.044596591,323.0
75.070857156,321.0
75.097117721,303.0
75.123378286,321.0
75.149638851,310.0
75.175899416,334.0
75.202159981,271.0
75.228420546,314.0
75.254681111,284.0
75.280941676,305.0
75.307202241,306.0
75.333462806,301.0
75.359723371,326.0
75.385983936,277.0
75.412244501,317.0
75.438505066,294.0
75.464765631,283.0
75.491026196,298.0
75.517286761,290.0
75.543547326,304.0
75.569807891,265.0
75.596068456,257.0
75.622329021,290.0
75.648589586,278.0
75.674850151,297.0
75.701110716,284.0
75.727371281,286.0
75.753631846,261.0
75.779892411,288.0
75.806152976,268.0
75.832413541,285.0
75.858674106,289.0
75.884934671,298.0
75.911195236,304.0
75.937455801,305.0
75.963716366,267.0
75.989976931,256.0
76.016237496,260.0
76.042498061,320.0
76.068758626,282.0
76.095019191,264.0
76.121279756,280.0
76.147540321,286.0
76.173800886,258.0
76.200061451,262.0
76.226322016,264.0
76.252582581,283.0
76.278843146,287.0
76.305103711,288.0
76.331364276,249.0
76.357624841,260.0
76.383885406,306.0
76.410145971,275.0
76.436406536,254.0
76.462667101,282.0
76.488927666,267.0
76.515188231,236.0
76.541448796,274.0
76.567709361,255.0
76.593969926,291.0
76.620230491,275.0
76.646491056,253.0
76.672751621,293.0
76.699012186,300.0
76.725272751,280.0
76.751533316,266.0
76.777793881,293.0
76.804054446,281.0
76.830315011,286.0
76.856575576,275.0
76.882836141,246.0
76.909096706,269.0
76.935357271,282.0
76.961617836,306.0
76.987878401,287.0
77.014138966,276.0
77.040399531,273.0
77.066660096,288.0
77.092920661,298.0
77.119181226,307.0
77.145441791,267.0
77.171702356,312.0
77.197962921,337.0
77.224223486,334.0
77.250484051,358.0
77.276744616,419.0
77.303005181,404.0
77.329265746,405.0
77.355526311,430.0
77.381786876,463.0
77.408047441,493.0
77.434308006,499.0
77.460568571,521.0
77.486829136,480.0
77.513089701,448.0
77.539350266,401.0
77.565610831,412.0
77.591871396,376.0
77.618131961,358.0
77.644392526,402.0
77.670653091,365.0
77.696913656,341.0
77.723174221,332.0
77.749434786,339.0
77.775695351,315.0
77.801955916,261.0
77.828216481,280.0
77.854477046,303.0
77.880737611,289.0
77.906998176,296.0
77.933258741,268.0
77.959519306,257.0
77.985779871,309.0
78.012040436,246.0
78.038301001,274.0
78.064561566,249.0
78.090822131,253.0
78.117082697,308.0
78.143343262,294.0
78.169603827,307.0
78.195864392,299.0
78.222124957,261.0
78.248385522,250.0
78.274646087,277.0
78.300906652,284.0
78.327167217,255.0
78.353427782,251.0
78.379688347,286.0
78.405948912,273.0
78.432209477,272.0
78.458470042,264.0
78.484730607,280.0
78.510991172,273.0
78.537251737,272.0
78.563512302,273.0
78.589772867,249.0
78.616033432,257.0
78.642293997,245.0
78.668554562,256.0
78.694815127,290.0
78.721075692,244.0
78.747336257,282.0
78.773596822,265.0
78.799857387,271.0
78.826117952,283.0
78.852378517,259.0
78.878639082,252.0
78.904899647,251.0
78.931160212,278.0
78.957420777,267.0
78.983681342,251.0
79.009941907,281.0
79.036202472,260.0
79.062463037,250.0
79.088723602,250.0
79.114984167,282.0
79.141244732,259.0
79.167505297,269.0
79.193765862,231.0
79.220026427,235.0
79.246286992,267.0
79.272547557,257.0
79.298808122,285.0
79.325068687,271.0
79.351329252,269.0
79.377589817,255.0
79.403850382,256.0
79.430110947,280.0
79.456371512,246.0
79.482632077,284.0
79.508892642,268.0
79.535153207,245.0
79.561413772,252.0
79.587674337,284.0
79.613934902,259.0
79.640195467,278.0
79.666456032,240.0
79.692716597,248.0
79.718977162,247.0
79.745237727,233.0
79.771498292,237.0
79.797758857,239.0
79.824019422,239.0
79.850279987,265.0
79.876540552,255.0
79.902801117,296.0
79.929061682,238.0
79.955322247,265.0
79.981582812,257.0
80.007843377,227.0
80.034103942,264.0
80.060364507,226.0
80.086625072,238.0
80.112885637,287.0
80.139146202,255.0
80.165406767,255.0
80.191667332,251.0
80.217927897,275.0
80.244188462,287.0
80.270449027,247.0
80.296709592,279.0
80.322970157,242.0
80.349230722,242.0
80.375491287,280.0
80.401751852,243.0
80.428012417,272.0
80.454272982,250.0
80.480533547,256.0
80.506794112,239.0
80.533054677,255.0
80.559315242,273.0
80.585575807,267.0
80.611836372,241.0
80.638096937,258.0
80.664357502,281.0
80.690618067,273.0
80.716878632,236.0
80.743139197,263.0
80.769399762,261.0
80.795660327,241.0
80.821920892,255.0
80.848181457,266.0
80.874442022,247.0
80.900702587,234.0
80.926963152,268.0
80.953223717,242.0
80.979484282,262.0
81.005744847,243.0
81.032005412,264.0
81.058265977,249.0
81.084526542,247.0
81.110787107,266.0
81.137047672,228.0
81.163308237,256.0
81.189568802,277.0
81.215829367,241.0
81.242089932,237.0
81.268350497,261.0
81.294611062,269.0
81.320871627,254.0
81.347132192,267.0
81.373392757,228.0
81.399653322,231.0
81.425913887,253.0
81.452174452,245.0
81.478435017,266.0
81.504695583,247.0
81.530956148,222.0
81.557216713,273.0
81.583477278,240.0
81.609737843,250.0
81.635998408,239.0
81.662258973,266.0
81.688519538,266.0
81.714780103,243.0
81.741040668,234.0
81.767301233,234.0
81.793561798,245.0
81.819822363,242.0
81.846082928,263.0
81.872343493,251.0
81.898604058,276.0
81.924864623,248.0
81.951125188,217.0
81.977385753,234.0
82.003646318,249.0
82.029906883,242.0
82.056167448,266.0
82.082428013,262.0
82.108688578,252.0
82.134949143,249.0
82.161209708,266.0
82.187470273,213.0
82.213730838,272.0
82.239991403,250.0
82.266251968,249.0
82.292512533,251.0
82.318773098,249.0
82.345033663,240.0
82.371294228,248.0
82.397554793,225.0
82.423815358,254.0
82.450075923,263.0
82.476336488,255.0
82.502597053,276.0
82.528857618,252.0
82.555118183,232.0
82.581378748,256.0
82.607639313,233.0
82.633899878,270.0
82.660160443,251.0
82.686421008,262.0
82.712681573,229.0
82.738942138,252.0
82.765202703,247.0
82.791463268,226.0
82.817723833,251.0
82.843984398,237.0
82.870244963,252.0
82.896505528,261.0
82.922766093,278.0
82.949026658,242.0
82.975287223,276.0
83.001547788,265.0
83.027808353,265.0
83.054068918,278.0
83.080329483,268.0
83.106590048,286.0
83.132850613,266.0
83.159111178,281.0
83.185371743,279.0
83.211632308,308.0
83.237892873,303.0
83.264153438,292.0
83.290414003,309.0
83.316674568,354.0
83.342935133,349.0
83.369195698,345.0
83.395456263,358.0
83.421716828,371.0
83.447977393,389.0
83.474237958,401.0
83.500498523,373.0
83.526759088,419.0
83.553019653,403.0
83.579280218,427.0
83.605540783,339.0
83.631801348,369.0
83.658061913,345.0
83.684322478,355.0
83.710583043,354.0
83.736843608,324.0
83.763104173,344.0
83.789364738,351.0
83.815625303,313.0
83.841885868,325.0
83.868146433,328.0
83.894406998,310.0
83.920667563,305.0
83.946928128,285.0
83.973188693,300.0
83.999449258,293.0
84.025709823,287.0
84.051970388,239.0
84.078230953,270.0
84.104491518,265.0
84.130752083,256.0
84.157012648,250.0
84.183273213,247.0
84.209533778,253.0
84.235794343,260.0
84.262054908,218.0
84.288315473,246.0
84.314576038,249.0
84.340836603,269.0
84.367097168,244.0
84.393357733,257.0
84.419618298,229.0
84.445878863,255.0
84.472139428,261.0
84.498399993,247.0
84.524660558,277.0
84.550921123,230.0
84.577181688,242.0
84.603442253,270.0
84.629702818,257.0
84.655963383,240.0
84.682223948,253.0
84.708484513,234.0
84.734745078,236.0
84.761005643,254.0
84.787266208,242.0
84.813526773,250.0
84.839787338,258.0
84.866047903,227.0
84.892308469,268.0
84.918569034,230.0
84.944829599,222.0
84.971090164,241.0
84.997350729,239.0
85.023611294,256.0
85.049871859,241.0
85.076132424,234.0
85.102392989,220.0
85.128653554,219.0
85.154914119,243.0
85.181174684,261.0
85.207435249,244.0
85.233695814,209.0
85.259956379,263.0
85.286216944,243.0
85.312477509,247.0
85.338738074,241.0
85.364998639,244.0
85.391259204,245.0
85.417519769,229.0
85.443780334,247.0
85.470040899,230.0
85.496301464,257.0
85.522562029,238.0
85.548822594,226.0
85.575083159,258.0
85.601343724,288.0
85.627604289,238.0
85.653864854,242.0
85.680125419,263.0
85.706385984,226.0
85.732646549,238.0
85.758907114,250.0
85.785167679,235.0
85.811428244,235.0
85.837688809,247.0
85.863949374,263.0
85.890209939,239.0
85.916470504,218.0
85.942731069,254.0
85.968991634,233.0
85.995252199,227.0
86.021512764,265.0
86.047773329,265.0
86.074033894,232.0
86.100294459,246.0
86.126555024,235.0
86.152815589,240.0
86.179076154,271.0
86.205336719,230.0
86.231597284,254.0
86.257857849,248.0
86.284118414,225.0
86.310378979,236.0
86.336639544,232.0
86.362900109,245.0
86.389160674,261.0
86.415421239,272.0
86.441681804,222.0
86.467942369,288.0
86.494202934,236.0
86.520463499,234.0
86.546724064,234.0
86.572984629,228.0
86.599245194,236.0
86.625505759,271.0
86.651766324,244.0
86.678026889,258.0
86.704287454,262.0
86.730548019,283.0
86.756808584,259.0
86.783069149,264.0
86.809329714,245.0
86.835590279,277.0
86.861850844,263.0
86.888111409,297.0
86.914371974,301.0
86.940632539,265.0
86.966893104,290.0
86.993153669,233.0
87.019414234,289.0
87.045674799,262.0
87.071935364,250.0
87.098195929,240.0
87.124456494,280.0
87.150717059,282.0
87.176977624,255.0
87.203238189,256.0
87.229498754,263.0
87.255759319,266.0
87.282019884,279.0
87.308280449,289.0
87.334541014,231.0
87.360801579,235.0
87.387062144,269.0
87.413322709,271.0
87.439583274,273.0
87.465843839,244.0
87.492104404,267.0
87.518364969,260.0
87.544625534,254.0
87.570886099,264.0
87.597146664,268.0
87.623407229,266.0
87.649667794,260.0
87.675928359,249.0
87.702188924,235.0
87.728449489,279.0
87.754710054,275.0
87.780970619,250.0
87.807231184,264.0
87.833491749,251.0
87.859752314,250.0
87.886012879,249.0
87.912273444,278.0
87.938534009,270.0
87.964794574,249.0
87.991055139,255.0
88.017315704,242.0
88.043576269,263.0
88.069836834,243.0
88.096097399,267.0
88.122357964,262.0
88.148618529,239.0
88.174879094,262.0
88.201139659,260.0
88.227400224,258.0
88.253660789,251.0
88.279921354,246.0
88.306181920,264.0
88.332442485,251.0
88.358703050,222.0
88.384963615,256.0
88.411224180,252.0
88.437484745,225.0
88.463745310,263.0
88.490005875,219.0
88.516266440,267.0
88.542527005,237.0
88.568787570,238.0
88.595048135,233.0
88.621308700,252.0
88.647569265,252.0
88.673829830,261.0
88.700090395,253.0
88.726350960,254.0
88.752611525,217.0
88.778872090,251.0
88.805132655,239.0
88.831393220,280.0
88.857653785,243.0
88.883914350,248.0
88.910174915,265.0
88.936435480,251.0
88.962696045,255.0
88.988956610,263.0
89.015217175,237.0
89.041477740,229.0
89.067738305,274.0
89.093998870,284.0
89.120259435,271.0
89.146520000,214.0
89.172780565,223.0
89.199041130,218.0
89.225301695,225.0
89.251562260,274.0
89.277822825,265.0
89.304083390,256.0
89.330343955,209.0
89.356604520,252.0
89.382865085,269.0
89.409125650,273.0
89.435386215,256.0
89.461646780,248.0
89.487907345,251.0
89.514167910,264.0
89.540428475,255.0
89.566689040,216.0
89.592949605,205.0
89.619210170,226.0
89.645470735,254.0
89.671731300,269.0
89.697991865,246.0
89.724252430,234.0
89.750512995,214.0
89.776773560,204.0
89.803034125,206.0
89.829294690,236.0
89.855555255,264.0
89.881815820,246.0
89.908076385,226.0
89.934336950,229.0
89.960597515,215.0
89.986858080,230.0
