[Measurement conditions]
Sample identification,
Comment - 1,"Configuration=Stage for flat samples/holders, Owner=User-1, Creation date=3/27/2015 11:56:23 AM"
Comment - 2,"Goniometer=Theta/Theta; Minimum step size 2Theta:0.0001; Minimum step size Omega:0.0001"
Comment - 3,"Sample stage=Stage for flat samples/holders"
Comment - 4,"Diffractometer system=EMPYREAN"
Comment - 5,"Measurement program=C:\PANalytical\Data Collector\Programs\Powder - Copy.xrdmp, Identifier={BEEA10DD-8FD6-4721-8940-4FBC5A4262A1}"
Comment - 6,"Fine Calibration Offset for 2Theta = -0.0130 deg"
Comment - 7,"Fine Calibration Offset for Omega = -0.0070 deg"
Anode material,Cu
K-Alpha1 wavelength,1.5405980
K-Alpha2 wavelength,1.5444260
Ratio K-Alpha2/K-Alpha1,0.500
Divergence slit,Fixed,0.38mm
Monochromator used,NO
Generator voltage, 40
Tube current, 35
File date and time,24/Jul/2017 16:27
Unit cell,
h k l, 0 0 0
Scan axis,Gonio
Scan range,5.020799997,89.999988363
Scan step size,0.0262606
No. of points, 3236
Scan type,CONTINUOUS
Time per step,18.615
[Scan points]
Angle,Intensity
5.033930280,2069.0
5.060190845,1904.0
5.086451410,1893.0
5.112711975,2017.0
5.138972540,1935.0
5.165233105,1928.0
5.191493670,1927.0
5.217754235,1900.0
5.244014800,2023.0
5.270275365,1997.0
5.296535930,1862.0
5.322796495,1948.0
5.349057060,1892.0
5.375317625,1883.0
5.401578190,1924.0
5.427838755,2008.0
5.454099320,2057.0
5.480359885,1930.0
5.506620450,1951.0
5.532881015,1985.0
5.559141580,1911.0
5.585402145,1899.0
5.611662710,1906.0
5.637923275,1904.0
5.664183840,1953.0
5.690444405,1926.0
5.716704970,1927.0
5.742965535,1941.0
5.769226100,1995.0
5.795486665,1950.0
5.821747230,1932.0
5.848007795,1898.0
5.874268360,1935.0
5.900528925,1895.0
5.926789490,1973.0
5.953050055,1938.0
5.979310620,1947.0
6.005571185,1830.0
6.031831750,1922.0
6.058092315,1883.0
6.084352880,1904.0
6.110613445,1910.0
6.136874010,1894.0
6.163134575,1897.0
6.189395140,1927.0
6.215655705,1881.0
6.241916270,1939.0
6.268176835,1870.0
6.294437400,1833.0
6.320697965,1939.0
6.346958530,1855.0
6.373219095,1920.0
6.399479660,1926.0
6.425740225,1922.0
6.452000790,1860.0
6.478261355,1981.0
6.504521920,1839.0
6.530782485,2012.0
6.557043050,1888.0
6.583303615,1921.0
6.609564180,1845.0
6.635824745,1857.0
6.662085310,1951.0
6.688345875,1916.0
6.714606440,1912.0
6.740867006,1956.0
6.767127571,1885.0
6.793388136,1934.0
6.819648701,2018.0
6.845909266,1903.0
6.872169831,2002.0
6.898430396,1835.0
6.924690961,1842.0
6.950951526,1994.0
6.977212091,1812.0
7.003472656,1929.0
7.029733221,1875.0
7.055993786,1887.0
7.082254351,1855.0
7.108514916,1877.0
7.134775481,1904.0
7.161036046,1905.0
7.187296611,1927.0
7.213557176,1848.0
7.239817741,1941.0
7.266078306,1895.0
7.292338871,1844.0
7.318599436,1857.0
7.344860001,1911.0
7.371120566,1862.0
7.397381131,1905.0
7.423641696,1810.0
7.449902261,1927.0
7.476162826,1809.0
7.502423391,1878.0
7.528683956,1885.0
7.554944521,1964.0
7.581205086,1893.0
7.607465651,1907.0
7.633726216,1922.0
7.659986781,1920.0
7.686247346,1916.0
7.712507911,1974.0
7.738768476,1936.0
7.765029041,1961.0
7.791289606,1831.0
7.817550171,1911.0
7.843810736,1939.0
7.870071301,1920.0
7.896331866,1897.0
7.922592431,1948.0
7.948852996,1871.0
7.975113561,1922.0
8.001374126,1995.0
8.027634691,1986.0
8.053895256,1932.0
8.080155821,2007.0
8.106416386,1999.0
8.132676951,2105.0
8.158937516,2067.0
8.185198081,2054.0
8.211458646,2004.0
8.237719211,2097.0
8.263979776,2060.0
8.290240341,2020.0
8.316500906,1979.0
8.342761471,2072.0
8.369022036,2064.0
8.395282601,2050.0
8.421543166,2147.0
8.447803731,2152.0
8.474064296,2129.0
8.500324861,2066.0
8.526585426,2045.0
8.552845991,2138.0
8.579106556,2085.0
8.605367121,2175.0
8.631627686,2075.0
8.657888251,2152.0
8.684148816,2085.0
8.710409381,2310.0
8.736669946,2243.0
8.762930511,2225.0
8.789191076,2215.0
8.815451641,2318.0
8.841712206,2346.0
8.867972771,2281.0
8.894233336,2255.0
8.920493901,2286.0
8.946754466,2308.0
8.973015031,2323.0
8.999275596,2281.0
9.025536161,2268.0
9.051796726,2428.0
9.078057291,2302.0
9.104317856,2301.0
9.130578421,2253.0
9.156838986,2390.0
9.183099551,2309.0
9.209360116,2398.0
9.235620681,2300.0
9.261881246,2300.0
9.288141811,2341.0
9.314402376,2186.0
9.340662941,2278.0
9.366923506,2273.0
9.393184071,2310.0
9.419444636,2297.0
9.445705201,2272.0
9.471965766,2177.0
9.498226331,2217.0
9.524486896,2187.0
9.550747461,2206.0
9.577008026,2169.0
9.603268591,2188.0
9.629529156,2053.0
9.655789721,2122.0
9.682050286,2074.0
9.708310851,2041.0
9.734571416,1990.0
9.760831981,2025.0
9.787092546,2060.0
9.813353111,2127.0
9.839613676,2027.0
9.865874241,1954.0
9.892134806,2010.0
9.918395371,1973.0
9.944655936,1894.0
9.970916501,1991.0
9.997177066,1944.0
10.023437631,1976.0
10.049698196,1941.0
10.075958761,1903.0
10.102219326,1904.0
10.128479891,1803.0
10.154740457,1930.0
10.181001022,1827.0
10.207261587,1861.0
10.233522152,1891.0
10.259782717,1861.0
10.286043282,1780.0
10.312303847,1759.0
10.338564412,1858.0
10.364824977,1809.0
10.391085542,1852.0
10.417346107,1860.0
10.443606672,1820.0
10.469867237,1836.0
10.496127802,1799.0
10.522388367,1798.0
10.548648932,1863.0
10.574909497,1868.0
10.601170062,1732.0
10.627430627,1814.0
10.653691192,1773.0
10.679951757,1827.0
10.706212322,1750.0
10.732472887,1866.0
10.758733452,1765.0
10.784994017,1789.0
10.811254582,1734.0
10.837515147,1780.0
10.863775712,1759.0
10.890036277,1691.0
10.916296842,1757.0
10.942557407,1826.0
10.968817972,1805.0
10.995078537,1783.0
11.021339102,1678.0
11.047599667,1718.0
11.073860232,1667.0
11.100120797,1752.0
11.126381362,1662.0
11.152641927,1694.0
11.178902492,1814.0
11.205163057,1678.0
11.231423622,1718.0
11.257684187,1691.0
11.283944752,1755.0
11.310205317,1734.0
11.336465882,1726.0
11.362726447,1721.0
11.388987012,1744.0
11.415247577,1706.0
11.441508142,1663.0
11.467768707,1740.0
11.494029272,1774.0
11.520289837,1790.0
11.546550402,1718.0
11.572810967,1770.0
11.599071532,1728.0
11.625332097,1683.0
11.651592662,1733.0
11.677853227,1769.0
11.704113792,1685.0
11.730374357,1784.0
11.756634922,1720.0
11.782895487,1751.0
11.809156052,1698.0
11.835416617,1703.0
11.861677182,1718.0
11.887937747,1807.0
11.914198312,1729.0
11.940458877,1722.0
11.966719442,1790.0
11.992980007,1726.0
12.019240572,1640.0
12.045501137,1668.0
12.071761702,1709.0
12.098022267,1732.0
12.124282832,1743.0
12.150543397,1795.0
12.176803962,1700.0
12.203064527,1705.0
12.229325092,1754.0
12.255585657,1690.0
12.281846222,1757.0
12.308106787,1759.0
12.334367352,1734.0
12.360627917,1744.0
12.386888482,1775.0
12.413149047,1657.0
12.439409612,1709.0
12.465670177,1747.0
12.491930742,1790.0
12.518191307,1691.0
12.544451872,1741.0
12.570712437,1785.0
12.596973002,1698.0
12.623233567,1790.0
12.649494132,1676.0
12.675754697,1725.0
12.702015262,1750.0
12.728275827,1734.0
12.754536392,1758.0
12.780796957,1680.0
12.807057522,1773.0
12.833318087,1688.0
12.859578652,1666.0
12.885839217,1718.0
12.912099782,1770.0
12.938360347,1706.0
12.964620912,1680.0
12.990881477,1778.0
13.017142042,1718.0
13.043402607,1807.0
13.069663172,1781.0
13.095923737,1713.0
13.122184302,1714.0
13.148444867,1728.0
13.174705432,1743.0
13.200965997,1748.0
13.227226562,1671.0
13.253487127,1698.0
13.279747692,1696.0
13.306008257,1793.0
13.332268822,1803.0
13.358529387,1698.0
13.384789952,1768.0
13.411050517,1722.0
13.437311082,1735.0
13.463571647,1770.0
13.489832212,1800.0
13.516092777,1788.0
13.542353343,1704.0
13.568613908,1762.0
13.594874473,1784.0
13.621135038,1856.0
13.647395603,1824.0
13.673656168,1810.0
13.699916733,1755.0
13.726177298,1833.0
13.752437863,1659.0
13.778698428,1730.0
13.804958993,1749.0
13.831219558,1847.0
13.857480123,1766.0
13.883740688,1770.0
13.910001253,1757.0
13.936261818,1706.0
13.962522383,1775.0
13.988782948,1741.0
14.015043513,1729.0
14.041304078,1837.0
14.067564643,1792.0
14.093825208,1807.0
14.120085773,1779.0
14.146346338,1711.0
14.172606903,1789.0
14.198867468,1784.0
14.225128033,1777.0
14.251388598,1710.0
14.277649163,1837.0
14.303909728,1804.0
14.330170293,1827.0
14.356430858,1783.0
14.382691423,1799.0
14.408951988,1761.0
14.435212553,1802.0
14.461473118,1775.0
14.487733683,1799.0
14.513994248,1741.0
14.540254813,1759.0
14.566515378,1770.0
14.592775943,1767.0
14.619036508,1794.0
14.645297073,1822.0
14.671557638,1810.0
14.697818203,1780.0
14.724078768,1809.0
14.750339333,1796.0
14.776599898,1822.0
14.802860463,1797.0
14.829121028,1792.0
14.855381593,1832.0
14.881642158,1796.0
14.907902723,1776.0
14.934163288,1745.0
14.960423853,1678.0
14.986684418,1710.0
15.012944983,1739.0
15.039205548,1655.0
15.065466113,1681.0
15.091726678,1763.0
15.117987243,1713.0
15.144247808,1662.0
15.170508373,1629.0
15.196768938,1570.0
15.223029503,1690.0
15.249290068,1617.0
15.275550633,1633.0
15.301811198,1565.0
15.328071763,1539.0
15.354332328,1561.0
15.380592893,1513.0
15.406853458,1529.0
15.433114023,1520.0
15.459374588,1439.0
15.485635153,1466.0
15.511895718,1461.0
15.538156283,1400.0
15.564416848,1407.0
15.590677413,1375.0
15.616937978,1418.0
15.643198543,1388.0
15.669459108,1450.0
15.695719673,1391.0
15.721980238,1377.0
15.748240803,1292.0
15.774501368,1322.0
15.800761933,1337.0
15.827022498,1303.0
15.853283063,1264.0
15.879543628,1278.0
15.905804193,1250.0
15.932064758,1258.0
15.958325323,1270.0
15.984585888,1313.0
16.010846453,1173.0
16.037107018,1198.0
16.063367583,1197.0
16.089628148,1218.0
16.115888713,1178.0
16.142149278,1155.0
16.168409843,1084.0
16.194670408,1125.0
16.220930973,1124.0
16.247191538,1189.0
16.273452103,1113.0
16.299712668,1106.0
16.325973233,1164.0
16.352233798,1146.0
16.378494363,1127.0
16.404754928,1124.0
16.431015493,1146.0
16.457276058,1108.0
16.483536623,1147.0
16.509797188,1041.0
16.536057753,1111.0
16.562318318,1098.0
16.588578883,1073.0
16.614839448,1063.0
16.641100013,1080.0
16.667360578,1039.0
16.693621143,1086.0
16.719881708,987.0
16.746142273,1051.0
16.772402838,1085.0
16.798663403,1100.0
16.824923968,1046.0
16.851184533,1039.0
16.877445098,1017.0
16.903705663,955.0
16.929966229,1039.0
16.956226794,1007.0
16.982487359,1015.0
17.008747924,976.0
17.035008489,970.0
17.061269054,994.0
17.087529619,1031.0
17.113790184,1006.0
17.140050749,991.0
17.166311314,1043.0
17.192571879,1015.0
17.218832444,1011.0
17.245093009,1038.0
17.271353574,956.0
17.297614139,973.0
17.323874704,927.0
17.350135269,962.0
17.376395834,960.0
17.402656399,968.0
17.428916964,975.0
17.455177529,980.0
17.481438094,915.0
17.507698659,976.0
17.533959224,953.0
17.560219789,971.0
17.586480354,984.0
17.612740919,958.0
17.639001484,940.0
17.665262049,970.0
17.691522614,967.0
17.717783179,993.0
17.744043744,975.0
17.770304309,999.0
17.796564874,926.0
17.822825439,917.0
17.849086004,959.0
17.875346569,920.0
17.901607134,940.0
17.927867699,908.0
17.954128264,887.0
17.980388829,944.0
18.006649394,905.0
18.032909959,928.0
18.059170524,894.0
18.085431089,973.0
18.111691654,947.0
18.137952219,983.0
18.164212784,912.0
18.190473349,908.0
18.216733914,934.0
18.242994479,877.0
18.269255044,872.0
18.295515609,947.0
18.321776174,956.0
18.348036739,922.0
18.374297304,928.0
18.400557869,924.0
18.426818434,929.0
18.453078999,934.0
18.479339564,981.0
18.505600129,940.0
18.531860694,906.0
18.558121259,894.0
18.584381824,973.0
18.610642389,878.0
18.636902954,891.0
18.663163519,908.0
18.689424084,871.0
18.715684649,965.0
18.741945214,928.0
18.768205779,899.0
18.794466344,912.0
18.820726909,846.0
18.846987474,907.0
18.873248039,898.0
18.899508604,899.0
18.925769169,926.0
18.952029734,914.0
18.978290299,938.0
19.004550864,947.0
19.030811429,911.0
19.057071994,898.0
19.083332559,889.0
19.109593124,881.0
19.135853689,928.0
19.162114254,885.0
19.188374819,926.0
19.214635384,895.0
19.240895949,877.0
19.267156514,942.0
19.293417079,854.0
19.319677644,894.0
19.345938209,889.0
19.372198774,874.0
19.398459339,883.0
19.424719904,938.0
19.450980469,884.0
19.477241034,896.0
19.503501599,871.0
19.529762164,906.0
19.556022729,872.0
19.582283294,903.0
19.608543859,915.0
19.634804424,868.0
19.661064989,872.0
19.687325554,869.0
19.713586119,831.0
19.739846684,875.0
19.766107249,892.0
19.792367814,928.0
19.818628379,850.0
19.844888944,837.0
19.871149509,864.0
19.897410074,928.0
19.923670639,901.0
19.949931204,905.0
19.976191769,831.0
20.002452334,837.0
20.028712899,835.0
20.054973464,887.0
20.081234029,923.0
20.107494594,864.0
20.133755159,872.0
20.160015724,949.0
20.186276289,893.0
20.212536854,927.0
20.238797419,860.0
20.265057984,958.0
20.291318549,876.0
20.317579114,882.0
20.343839680,927.0
20.370100245,884.0
20.396360810,920.0
20.422621375,911.0
20.448881940,963.0
20.475142505,893.0
20.501403070,829.0
20.527663635,870.0
20.553924200,966.0
20.580184765,897.0
20.606445330,908.0
20.632705895,860.0
20.658966460,921.0
20.685227025,898.0
20.711487590,966.0
20.737748155,869.0
20.764008720,853.0
20.790269285,851.0
20.816529850,860.0
20.842790415,924.0
20.869050980,885.0
20.895311545,900.0
20.921572110,921.0
20.947832675,913.0
20.974093240,859.0
21.000353805,894.0
21.026614370,861.0
21.052874935,854.0
21.079135500,928.0
21.105396065,961.0
21.131656630,869.0
21.157917195,907.0
21.184177760,863.0
21.210438325,891.0
21.236698890,840.0
21.262959455,900.0
21.289220020,916.0
21.315480585,891.0
21.341741150,920.0
21.368001715,836.0
21.394262280,867.0
21.420522845,954.0
21.446783410,874.0
21.473043975,864.0
21.499304540,850.0
21.525565105,863.0
21.551825670,829.0
21.578086235,883.0
21.604346800,854.0
21.630607365,855.0
21.656867930,897.0
21.683128495,901.0
21.709389060,876.0
21.735649625,847.0
21.761910190,856.0
21.788170755,875.0
21.814431320,819.0
21.840691885,881.0
21.866952450,918.0
21.893213015,911.0
21.919473580,862.0
21.945734145,868.0
21.971994710,853.0
21.998255275,921.0
22.024515840,876.0
22.050776405,917.0
22.077036970,863.0
22.103297535,878.0
22.129558100,878.0
22.155818665,934.0
22.182079230,887.0
22.208339795,852.0
22.234600360,964.0
22.260860925,887.0
22.287121490,853.0
22.313382055,850.0
22.339642620,890.0
22.365903185,889.0
22.392163750,885.0
22.418424315,843.0
22.444684880,871.0
22.470945445,864.0
22.497206010,917.0
22.523466575,859.0
22.549727140,927.0
22.575987705,892.0
22.602248270,894.0
22.628508835,853.0
22.654769400,888.0
22.681029965,863.0
22.707290530,886.0
22.733551095,928.0
22.759811660,846.0
22.786072225,913.0
22.812332790,915.0
22.838593355,841.0
22.864853920,906.0
22.891114485,871.0
22.917375050,908.0
22.943635615,933.0
22.969896180,883.0
22.996156745,853.0
23.022417310,865.0
23.048677875,836.0
23.074938440,874.0
23.101199005,920.0
23.127459570,907.0
23.153720135,865.0
23.179980700,890.0
23.206241265,897.0
23.232501830,852.0
23.258762395,848.0
23.285022960,927.0
23.311283525,904.0
23.337544090,838.0
23.363804655,899.0
23.390065220,887.0
23.416325785,928.0
23.442586350,904.0
23.468846915,877.0
23.495107480,910.0
23.521368045,914.0
23.547628610,921.0
23.573889175,926.0
23.600149740,928.0
23.626410305,888.0
23.652670870,910.0
23.678931435,862.0
23.705192000,943.0
23.731452566,876.0
23.757713131,864.0
23.783973696,889.0
23.810234261,879.0
23.836494826,887.0
23.862755391,923.0
23.889015956,965.0
23.915276521,897.0
23.941537086,869.0
23.967797651,922.0
23.994058216,868.0
24.020318781,903.0
24.046579346,896.0
24.072839911,817.0
24.099100476,879.0
24.125361041,824.0
24.151621606,815.0
24.177882171,939.0
24.204142736,939.0
24.230403301,927.0
24.256663866,880.0
24.282924431,950.0
24.309184996,878.0
24.335445561,828.0
24.361706126,888.0
24.387966691,926.0
24.414227256,860.0
24.440487821,889.0
24.466748386,923.0
24.493008951,943.0
24.519269516,907.0
24.545530081,857.0
24.571790646,926.0
24.598051211,931.0
24.624311776,906.0
24.650572341,934.0
24.676832906,983.0
24.703093471,904.0
24.729354036,864.0
24.755614601,874.0
24.781875166,860.0
24.808135731,861.0
24.834396296,882.0
24.860656861,917.0
24.886917426,871.0
24.913177991,910.0
24.939438556,946.0
24.965699121,906.0
24.991959686,901.0
25.018220251,866.0
25.044480816,919.0
25.070741381,929.0
25.097001946,938.0
25.123262511,867.0
25.149523076,963.0
25.175783641,863.0
25.202044206,913.0
25.228304771,824.0
25.254565336,865.0
25.280825901,944.0
25.307086466,866.0
25.333347031,878.0
25.359607596,912.0
25.385868161,896.0
25.412128726,931.0
25.438389291,915.0
25.464649856,933.0
25.490910421,893.0
25.517170986,945.0
25.543431551,921.0
25.569692116,962.0
25.595952681,817.0
25.622213246,919.0
25.648473811,904.0
25.674734376,917.0
25.700994941,955.0
25.727255506,856.0
25.753516071,899.0
25.779776636,875.0
25.806037201,877.0
25.832297766,898.0
25.858558331,858.0
25.884818896,878.0
25.911079461,904.0
25.937340026,896.0
25.963600591,877.0
25.989861156,876.0
26.016121721,839.0
26.042382286,877.0
26.068642851,951.0
26.094903416,902.0
26.121163981,876.0
26.147424546,901.0
26.173685111,845.0
26.199945676,850.0
26.226206241,891.0
26.252466806,908.0
26.278727371,935.0
26.304987936,856.0
26.331248501,963.0
26.357509066,853.0
26.383769631,856.0
26.410030196,878.0
26.436290761,899.0
26.462551326,957.0
26.488811891,941.0
26.515072456,878.0
26.541333021,909.0
26.567593586,837.0
26.593854151,882.0
26.620114716,835.0
26.646375281,859.0
26.672635846,916.0
26.698896411,925.0
26.725156976,913.0
26.751417541,867.0
26.777678106,867.0
26.803938671,863.0
26.830199236,844.0
26.856459801,886.0
26.882720366,909.0
26.908980931,912.0
26.935241496,847.0
26.961502061,845.0
26.987762626,862.0
27.014023191,888.0
27.040283756,850.0
27.066544321,864.0
27.092804886,867.0
27.119065451,906.0
27.145326017,925.0
27.171586582,854.0
27.197847147,907.0
27.224107712,890.0
27.250368277,945.0
27.276628842,828.0
27.302889407,934.0
27.329149972,859.0
27.355410537,906.0
27.381671102,776.0
27.407931667,873.0
27.434192232,901.0
27.460452797,829.0
27.486713362,831.0
27.512973927,856.0
27.539234492,932.0
27.565495057,930.0
27.591755622,892.0
27.618016187,821.0
27.644276752,877.0
27.670537317,825.0
27.696797882,871.0
27.723058447,859.0
27.749319012,841.0
27.775579577,921.0
27.801840142,863.0
27.828100707,845.0
27.854361272,894.0
27.880621837,866.0
27.906882402,848.0
27.933142967,852.0
27.959403532,877.0
27.985664097,892.0
28.011924662,872.0
28.038185227,812.0
28.064445792,847.0
28.090706357,889.0
28.116966922,873.0
28.143227487,836.0
28.169488052,852.0
28.195748617,847.0
28.222009182,886.0
28.248269747,894.0
28.274530312,854.0
28.300790877,859.0
28.327051442,836.0
28.353312007,818.0
28.379572572,843.0
28.405833137,834.0
28.432093702,864.0
28.458354267,890.0
28.484614832,865.0
28.510875397,900.0
28.537135962,835.0
28.563396527,873.0
28.589657092,907.0
28.615917657,859.0
28.642178222,852.0
28.668438787,849.0
28.694699352,877.0
28.720959917,841.0
28.747220482,862.0
28.773481047,908.0
28.799741612,898.0
28.826002177,963.0
28.852262742,852.0
28.878523307,900.0
28.904783872,825.0
28.931044437,861.0
28.957305002,832.0
28.983565567,842.0
29.009826132,865.0
29.036086697,851.0
29.062347262,821.0
29.088607827,855.0
29.114868392,829.0
29.141128957,852.0
29.167389522,844.0
29.193650087,797.0
29.219910652,784.0
29.246171217,810.0
29.272431782,846.0
29.298692347,861.0
29.324952912,854.0
29.351213477,842.0
29.377474042,833.0
29.403734607,866.0
29.429995172,847.0
29.456255737,862.0
29.482516302,812.0
29.508776867,876.0
29.535037432,874.0
29.561297997,890.0
29.587558562,809.0
29.613819127,860.0
29.640079692,843.0
29.666340257,814.0
29.692600822,839.0
29.718861387,851.0
29.745121952,880.0
29.771382517,817.0
29.797643082,818.0
29.823903647,830.0
29.850164212,762.0
29.876424777,847.0
29.902685342,854.0
29.928945907,877.0
29.955206472,804.0
29.981467037,801.0
30.007727602,844.0
30.033988167,912.0
30.060248732,858.0
30.086509297,824.0
30.112769862,840.0
30.139030427,817.0
30.165290992,853.0
30.191551557,841.0
30.217812122,829.0
30.244072687,871.0
30.270333252,818.0
30.296593817,859.0
30.322854382,869.0
30.349114947,815.0
30.375375512,890.0
30.401636077,820.0
30.427896642,872.0
30.454157207,870.0
30.480417772,850.0
30.506678337,768.0
30.532938903,838.0
30.559199468,820.0
30.585460033,812.0
30.611720598,790.0
30.637981163,793.0
30.664241728,846.0
30.690502293,893.0
30.716762858,830.0
30.743023423,854.0
30.769283988,786.0
30.795544553,790.0
30.821805118,796.0
30.848065683,818.0
30.874326248,837.0
30.900586813,829.0
30.926847378,860.0
30.953107943,752.0
30.979368508,834.0
31.005629073,834.0
31.031889638,791.0
31.058150203,786.0
31.084410768,784.0
31.110671333,812.0
31.136931898,843.0
31.163192463,803.0
31.189453028,769.0
31.215713593,764.0
31.241974158,846.0
31.268234723,821.0
31.294495288,830.0
31.320755853,841.0
31.347016418,826.0
31.373276983,738.0
31.399537548,796.0
31.425798113,771.0
31.452058678,767.0
31.478319243,817.0
31.504579808,775.0
31.530840373,826.0
31.557100938,761.0
31.583361503,797.0
31.609622068,775.0
31.635882633,748.0
31.662143198,708.0
31.688403763,778.0
31.714664328,779.0
31.740924893,789.0
31.767185458,780.0
31.793446023,837.0
31.819706588,793.0
31.845967153,762.0
31.872227718,734.0
31.898488283,709.0
31.924748848,773.0
31.951009413,738.0
31.977269978,792.0
32.003530543,825.0
32.029791108,768.0
32.056051673,805.0
32.082312238,737.0
32.108572803,738.0
32.134833368,763.0
32.161093933,693.0
32.187354498,724.0
32.213615063,733.0
32.239875628,792.0
32.266136193,789.0
32.292396758,715.0
32.318657323,766.0
32.344917888,750.0
32.371178453,722.0
32.397439018,697.0
32.423699583,717.0
32.449960148,772.0
32.476220713,770.0
32.502481278,751.0
32.528741843,739.0
32.555002408,756.0
32.581262973,757.0
32.607523538,701.0
32.633784103,781.0
32.660044668,733.0
32.686305233,722.0
32.712565798,708.0
32.738826363,728.0
32.765086928,713.0
32.791347493,735.0
32.817608058,727.0
32.843868623,716.0
32.870129188,682.0
32.896389753,711.0
32.922650318,719.0
32.948910883,714.0
32.975171448,694.0
33.001432013,726.0
33.027692578,721.0
33.053953143,712.0
33.080213708,728.0
33.106474273,712.0
33.132734838,738.0
33.158995403,708.0
33.185255968,709.0
33.211516533,746.0
33.237777098,749.0
33.264037663,724.0
33.290298228,741.0
33.316558793,723.0
33.342819358,700.0
33.369079923,771.0
33.395340488,729.0
33.421601053,694.0
33.447861618,719.0
33.474122183,689.0
33.500382748,761.0
33.526643313,690.0
33.552903878,692.0
33.579164443,690.0
33.605425008,723.0
33.631685573,718.0
33.657946138,689.0
33.684206703,755.0
33.710467268,674.0
33.736727833,747.0
33.762988398,733.0
33.789248963,687.0
33.815509528,713.0
33.841770093,760.0
33.868030658,693.0
33.894291223,733.0
33.920551789,713.0
33.946812354,655.0
33.973072919,651.0
33.999333484,669.0
34.025594049,638.0
34.051854614,676.0
34.078115179,699.0
34.104375744,691.0
34.130636309,696.0
34.156896874,673.0
34.183157439,684.0
34.209418004,723.0
34.235678569,699.0
34.261939134,682.0
34.288199699,683.0
34.314460264,746.0
34.340720829,711.0
34.366981394,723.0
34.393241959,675.0
34.419502524,664.0
34.445763089,674.0
34.472023654,674.0
34.498284219,724.0
34.524544784,706.0
34.550805349,643.0
34.577065914,688.0
34.603326479,671.0
34.629587044,684.0
34.655847609,655.0
34.682108174,679.0
34.708368739,721.0
34.734629304,654.0
34.760889869,669.0
34.787150434,680.0
34.813410999,651.0
34.839671564,689.0
34.865932129,674.0
34.892192694,671.0
34.918453259,669.0
34.944713824,653.0
34.970974389,662.0
34.997234954,665.0
35.023495519,637.0
35.049756084,682.0
35.076016649,604.0
35.102277214,709.0
35.128537779,688.0
35.154798344,662.0
35.181058909,711.0
35.207319474,701.0
35.233580039,686.0
35.259840604,667.0
35.286101169,698.0
35.312361734,677.0
35.338622299,686.0
35.364882864,649.0
35.391143429,662.0
35.417403994,696.0
35.443664559,675.0
35.469925124,676.0
35.496185689,645.0
35.522446254,690.0
35.548706819,745.0
35.574967384,672.0
35.601227949,675.0
35.627488514,718.0
35.653749079,683.0
35.680009644,695.0
35.706270209,692.0
35.732530774,684.0
35.758791339,717.0
35.785051904,661.0
35.811312469,720.0
35.837573034,625.0
35.863833599,654.0
35.890094164,686.0
35.916354729,646.0
35.942615294,661.0
35.968875859,650.0
35.995136424,647.0
36.021396989,672.0
36.047657554,699.0
36.073918119,675.0
36.100178684,630.0
36.126439249,656.0
36.152699814,649.0
36.178960379,681.0
36.205220944,645.0
36.231481509,672.0
36.257742074,670.0
36.284002639,678.0
36.310263204,692.0
36.336523769,678.0
36.362784334,651.0
36.389044899,668.0
36.415305464,668.0
36.441566029,693.0
36.467826594,689.0
36.494087159,679.0
36.520347724,699.0
36.546608289,617.0
36.572868854,671.0
36.599129419,651.0
36.625389984,590.0
36.651650549,638.0
36.677911114,674.0
36.704171679,646.0
36.730432244,642.0
36.756692809,670.0
36.782953374,671.0
36.809213939,695.0
36.835474504,688.0
36.861735069,677.0
36.887995634,610.0
36.914256199,681.0
36.940516764,669.0
36.966777329,666.0
36.993037894,635.0
37.019298459,635.0
37.045559024,662.0
37.071819589,609.0
37.098080154,676.0
37.124340719,696.0
37.150601284,673.0
37.176861849,654.0
37.203122414,688.0
37.229382979,672.0
37.255643544,659.0
37.281904109,673.0
37.308164674,665.0
37.334425240,684.0
37.360685805,691.0
37.386946370,694.0
37.413206935,645.0
37.439467500,675.0
37.465728065,676.0
37.491988630,720.0
37.518249195,691.0
37.544509760,674.0
37.570770325,676.0
37.597030890,681.0
37.623291455,617.0
37.649552020,656.0
37.675812585,671.0
37.702073150,710.0
37.728333715,676.0
37.754594280,639.0
37.780854845,662.0
37.807115410,656.0
37.833375975,688.0
37.859636540,683.0
37.885897105,688.0
37.912157670,631.0
37.938418235,689.0
37.964678800,727.0
37.990939365,686.0
38.017199930,653.0
38.043460495,669.0
38.069721060,727.0
38.095981625,691.0
38.122242190,650.0
38.148502755,701.0
38.174763320,645.0
38.201023885,649.0
38.227284450,654.0
38.253545015,712.0
38.279805580,719.0
38.306066145,706.0
38.332326710,696.0
38.358587275,733.0
38.384847840,693.0
38.411108405,693.0
38.437368970,718.0
38.463629535,685.0
38.489890100,712.0
38.516150665,667.0
38.542411230,678.0
38.568671795,726.0
38.594932360,662.0
38.621192925,697.0
38.647453490,720.0
38.673714055,720.0
38.699974620,687.0
38.726235185,725.0
38.752495750,699.0
38.778756315,745.0
38.805016880,718.0
38.831277445,693.0
38.857538010,731.0
38.883798575,762.0
38.910059140,763.0
38.936319705,758.0
38.962580270,718.0
38.988840835,713.0
39.015101400,727.0
39.041361965,806.0
39.067622530,688.0
39.093883095,735.0
39.120143660,754.0
39.146404225,799.0
39.172664790,791.0
39.198925355,751.0
39.225185920,773.0
39.251446485,772.0
39.277707050,783.0
39.303967615,731.0
39.330228180,804.0
39.356488745,784.0
39.382749310,730.0
39.409009875,784.0
39.435270440,813.0
39.461531005,834.0
39.487791570,845.0
39.514052135,830.0
39.540312700,881.0
39.566573265,839.0
39.592833830,890.0
39.619094395,852.0
39.645354960,865.0
39.671615525,844.0
39.697876090,886.0
39.724136655,849.0
39.750397220,872.0
39.776657785,907.0
39.802918350,936.0
39.829178915,930.0
39.855439480,919.0
39.881700045,958.0
39.907960610,940.0
39.934221175,974.0
39.960481740,1060.0
39.986742305,968.0
40.013002870,1020.0
40.039263435,1012.0
40.065524000,1030.0
40.091784565,1074.0
40.118045130,1079.0
40.144305695,1097.0
40.170566260,1116.0
40.196826825,1163.0
40.223087390,1145.0
40.249347955,1171.0
40.275608520,1184.0
40.301869085,1260.0
40.328129650,1231.0
40.354390215,1270.0
40.380650780,1234.0
40.406911345,1268.0
40.433171910,1260.0
40.459432475,1287.0
40.485693040,1360.0
40.511953605,1229.0
40.538214170,1299.0
40.564474735,1387.0
40.590735300,1354.0
40.616995865,1378.0
40.643256430,1289.0
40.669516995,1319.0
40.695777560,1387.0
40.722038126,1281.0
40.748298691,1403.0
40.774559256,1370.0
40.800819821,1293.0
40.827080386,1307.0
40.853340951,1307.0
40.879601516,1308.0
40.905862081,1351.0
40.932122646,1311.0
40.958383211,1336.0
40.984643776,1351.0
41.010904341,1288.0
41.037164906,1302.0
41.063425471,1276.0
41.089686036,1300.0
41.115946601,1368.0
41.142207166,1322.0
41.168467731,1319.0
41.194728296,1330.0
41.220988861,1289.0
41.247249426,1301.0
41.273509991,1318.0
41.299770556,1333.0
41.326031121,1319.0
41.352291686,1260.0
41.378552251,1260.0
41.404812816,1219.0
41.431073381,1271.0
41.457333946,1305.0
41.483594511,1281.0
41.509855076,1282.0
41.536115641,1294.0
41.562376206,1277.0
41.588636771,1289.0
41.614897336,1278.0
41.641157901,1251.0
41.667418466,1209.0
41.693679031,1302.0
41.719939596,1291.0
41.746200161,1223.0
41.772460726,1274.0
41.798721291,1251.0
41.824981856,1188.0
41.851242421,1235.0
41.877502986,1204.0
41.903763551,1200.0
41.930024116,1248.0
41.956284681,1228.0
41.982545246,1276.0
42.008805811,1200.0
42.035066376,1234.0
42.061326941,1211.0
42.087587506,1141.0
42.113848071,1200.0
42.140108636,1223.0
42.166369201,1238.0
42.192629766,1225.0
42.218890331,1205.0
42.245150896,1164.0
42.271411461,1209.0
42.297672026,1210.0
42.323932591,1205.0
42.350193156,1187.0
42.376453721,1176.0
42.402714286,1180.0
42.428974851,1192.0
42.455235416,1168.0
42.481495981,1177.0
42.507756546,1159.0
42.534017111,1171.0
42.560277676,1125.0
42.586538241,1149.0
42.612798806,1163.0
42.639059371,1131.0
42.665319936,1143.0
42.691580501,1105.0
42.717841066,1099.0
42.744101631,1083.0
42.770362196,1056.0
42.796622761,1117.0
42.822883326,1103.0
42.849143891,1079.0
42.875404456,1008.0
42.901665021,1101.0
42.927925586,1045.0
42.954186151,996.0
42.980446716,1050.0
43.006707281,1065.0
43.032967846,1070.0
43.059228411,1037.0
43.085488976,1016.0
43.111749541,962.0
43.138010106,1010.0
43.164270671,991.0
43.190531236,1042.0
43.216791801,971.0
43.243052366,967.0
43.269312931,960.0
43.295573496,942.0
43.321834061,969.0
43.348094626,998.0
43.374355191,940.0
43.400615756,999.0
43.426876321,958.0
43.453136886,859.0
43.479397451,996.0
43.505658016,877.0
43.531918581,956.0
43.558179146,938.0
43.584439711,902.0
43.610700276,978.0
43.636960841,874.0
43.663221406,871.0
43.689481971,956.0
43.715742536,973.0
43.742003101,937.0
43.768263666,834.0
43.794524231,849.0
43.820784796,883.0
43.847045361,857.0
43.873305926,836.0
43.899566491,855.0
43.925827056,861.0
43.952087621,818.0
43.978348186,848.0
44.004608751,804.0
44.030869316,821.0
44.057129881,793.0
44.083390446,811.0
44.109651011,846.0
44.135911577,825.0
44.162172142,768.0
44.188432707,826.0
44.214693272,836.0
44.240953837,765.0
44.267214402,757.0
44.293474967,829.0
44.319735532,816.0
44.345996097,754.0
44.372256662,812.0
44.398517227,761.0
44.424777792,780.0
44.451038357,741.0
44.477298922,721.0
44.503559487,795.0
44.529820052,782.0
44.556080617,767.0
44.582341182,760.0
44.608601747,787.0
44.634862312,770.0
44.661122877,783.0
44.687383442,760.0
44.713644007,790.0
44.739904572,724.0
44.766165137,720.0
44.792425702,776.0
44.818686267,732.0
44.844946832,786.0
44.871207397,721.0
44.897467962,696.0
44.923728527,743.0
44.949989092,768.0
44.976249657,713.0
45.002510222,725.0
45.028770787,684.0
45.055031352,683.0
45.081291917,706.0
45.107552482,690.0
45.133813047,740.0
45.160073612,662.0
45.186334177,665.0
45.212594742,684.0
45.238855307,707.0
45.265115872,692.0
45.291376437,654.0
45.317637002,690.0
45.343897567,691.0
45.370158132,671.0
45.396418697,677.0
45.422679262,699.0
45.448939827,628.0
45.475200392,659.0
45.501460957,664.0
45.527721522,652.0
45.553982087,629.0
45.580242652,613.0
45.606503217,645.0
45.632763782,597.0
45.659024347,681.0
45.685284912,678.0
45.711545477,677.0
45.737806042,612.0
45.764066607,676.0
45.790327172,641.0
45.816587737,627.0
45.842848302,598.0
45.869108867,620.0
45.895369432,648.0
45.921629997,650.0
45.947890562,587.0
45.974151127,637.0
46.000411692,664.0
46.026672257,664.0
46.052932822,592.0
46.079193387,589.0
46.105453952,617.0
46.131714517,599.0
46.157975082,612.0
46.184235647,579.0
46.210496212,587.0
46.236756777,603.0
46.263017342,590.0
46.289277907,616.0
46.315538472,606.0
46.341799037,568.0
46.368059602,612.0
46.394320167,611.0
46.420580732,565.0
46.446841297,577.0
46.473101862,569.0
46.499362427,611.0
46.525622992,529.0
46.551883557,571.0
46.578144122,564.0
46.604404687,597.0
46.630665252,551.0
46.656925817,524.0
46.683186382,594.0
46.709446947,569.0
46.735707512,569.0
46.761968077,581.0
46.788228642,541.0
46.814489207,541.0
46.840749772,528.0
46.867010337,519.0
46.893270902,551.0
46.919531467,603.0
46.945792032,519.0
46.972052597,546.0
46.998313162,537.0
47.024573727,566.0
47.050834292,580.0
47.077094857,556.0
47.103355422,542.0
47.129615987,583.0
47.155876552,545.0
47.182137117,518.0
47.208397682,557.0
47.234658247,566.0
47.260918812,518.0
47.287179377,532.0
47.313439942,527.0
47.339700507,544.0
47.365961072,504.0
47.392221637,530.0
47.418482202,543.0
47.444742767,472.0
47.471003332,549.0
47.497263897,515.0
47.523524463,561.0
47.549785028,521.0
47.576045593,496.0
47.602306158,516.0
47.628566723,525.0
47.654827288,503.0
47.681087853,515.0
47.707348418,509.0
47.733608983,515.0
47.759869548,482.0
47.786130113,473.0
47.812390678,526.0
47.838651243,467.0
47.864911808,518.0
47.891172373,490.0
47.917432938,499.0
47.943693503,507.0
47.969954068,439.0
47.996214633,505.0
48.022475198,537.0
48.048735763,498.0
48.074996328,486.0
48.101256893,454.0
48.127517458,419.0
48.153778023,500.0
48.180038588,468.0
48.206299153,483.0
48.232559718,484.0
48.258820283,474.0
48.285080848,483.0
48.311341413,458.0
48.337601978,448.0
48.363862543,468.0
48.390123108,475.0
48.416383673,497.0
48.442644238,459.0
48.468904803,525.0
48.495165368,482.0
48.521425933,473.0
48.547686498,455.0
48.573947063,499.0
48.600207628,454.0
48.626468193,445.0
48.652728758,403.0
48.678989323,404.0
48.705249888,530.0
48.731510453,470.0
48.757771018,406.0
48.784031583,460.0
48.810292148,430.0
48.836552713,460.0
48.862813278,480.0
48.889073843,416.0
48.915334408,469.0
48.941594973,424.0
48.967855538,431.0
48.994116103,443.0
49.020376668,471.0
49.046637233,430.0
49.072897798,453.0
49.099158363,417.0
49.125418928,427.0
49.151679493,435.0
49.177940058,442.0
49.204200623,478.0
49.230461188,415.0
49.256721753,392.0
49.282982318,485.0
49.309242883,424.0
49.335503448,415.0
49.361764013,439.0
49.388024578,411.0
49.414285143,427.0
49.440545708,434.0
49.466806273,422.0
49.493066838,455.0
49.519327403,458.0
49.545587968,412.0
49.571848533,453.0
49.598109098,418.0
49.624369663,435.0
49.650630228,393.0
49.676890793,422.0
49.703151358,419.0
49.729411923,395.0
49.755672488,417.0
49.781933053,424.0
49.808193618,437.0
49.834454183,401.0
49.860714748,373.0
49.886975313,423.0
49.913235878,401.0
49.939496443,427.0
49.965757008,413.0
49.992017573,386.0
50.018278138,468.0
50.044538703,402.0
50.070799268,411.0
50.097059833,407.0
50.123320398,410.0
50.149580963,384.0
50.175841528,405.0
50.202102093,423.0
50.228362658,354.0
50.254623223,379.0
50.280883788,376.0
50.307144353,406.0
50.333404918,420.0
50.359665483,408.0
50.385926048,384.0
50.412186613,412.0
50.438447178,409.0
50.464707743,363.0
50.490968308,359.0
50.517228873,361.0
50.543489438,403.0
50.569750003,396.0
50.596010568,408.0
50.622271133,396.0
50.648531698,390.0
50.674792263,398.0
50.701052828,418.0
50.727313393,356.0
50.753573958,379.0
50.779834523,373.0
50.806095088,379.0
50.832355653,412.0
50.858616218,407.0
50.884876783,378.0
50.911137349,359.0
50.937397914,375.0
50.963658479,383.0
50.989919044,390.0
51.016179609,379.0
51.042440174,379.0
51.068700739,394.0
51.094961304,381.0
51.121221869,407.0
51.147482434,393.0
51.173742999,390.0
51.200003564,365.0
51.226264129,397.0
51.252524694,396.0
51.278785259,370.0
51.305045824,408.0
51.331306389,342.0
51.357566954,384.0
51.383827519,329.0
51.410088084,401.0
51.436348649,409.0
51.462609214,406.0
51.488869779,353.0
51.515130344,363.0
51.541390909,352.0
51.567651474,397.0
51.593912039,374.0
51.620172604,393.0
51.646433169,382.0
51.672693734,407.0
51.698954299,337.0
51.725214864,412.0
51.751475429,361.0
51.777735994,383.0
51.803996559,404.0
51.830257124,340.0
51.856517689,360.0
51.882778254,347.0
51.909038819,369.0
51.935299384,350.0
51.961559949,355.0
51.987820514,386.0
52.014081079,358.0
52.040341644,373.0
52.066602209,375.0
52.092862774,340.0
52.119123339,363.0
52.145383904,369.0
52.171644469,384.0
52.197905034,375.0
52.224165599,348.0
52.250426164,364.0
52.276686729,383.0
52.302947294,372.0
52.329207859,362.0
52.355468424,337.0
52.381728989,381.0
52.407989554,390.0
52.434250119,361.0
52.460510684,349.0
52.486771249,336.0
52.513031814,362.0
52.539292379,348.0
52.565552944,376.0
52.591813509,323.0
52.618074074,391.0
52.644334639,315.0
52.670595204,352.0
52.696855769,332.0
52.723116334,360.0
52.749376899,374.0
52.775637464,376.0
52.801898029,352.0
52.828158594,372.0
52.854419159,346.0
52.880679724,330.0
52.906940289,367.0
52.933200854,378.0
52.959461419,357.0
52.985721984,314.0
53.011982549,373.0
53.038243114,307.0
53.064503679,353.0
53.090764244,363.0
53.117024809,352.0
53.143285374,366.0
53.169545939,328.0
53.195806504,343.0
53.222067069,333.0
53.248327634,359.0
53.274588199,339.0
53.300848764,346.0
53.327109329,338.0
53.353369894,373.0
53.379630459,299.0
53.405891024,368.0
53.432151589,335.0
53.458412154,349.0
53.484672719,303.0
53.510933284,337.0
53.537193849,374.0
53.563454414,365.0
53.589714979,359.0
53.615975544,339.0
53.642236109,352.0
53.668496674,342.0
53.694757239,360.0
53.721017804,367.0
53.747278369,363.0
53.773538934,329.0
53.799799499,348.0
53.826060064,374.0
53.852320629,318.0
53.878581194,366.0
53.904841759,339.0
53.931102324,371.0
53.957362889,357.0
53.983623454,335.0
54.009884019,372.0
54.036144584,317.0
54.062405149,355.0
54.088665714,348.0
54.114926279,361.0
54.141186844,350.0
54.167447409,324.0
54.193707974,353.0
54.219968539,324.0
54.246229104,370.0
54.272489669,353.0
54.298750234,344.0
54.325010800,358.0
54.351271365,361.0
54.377531930,368.0
54.403792495,360.0
54.430053060,357.0
54.456313625,350.0
54.482574190,331.0
54.508834755,357.0
54.535095320,305.0
54.561355885,368.0
54.587616450,332.0
54.613877015,318.0
54.640137580,360.0
54.666398145,354.0
54.692658710,351.0
54.718919275,329.0
54.745179840,381.0
54.771440405,344.0
54.797700970,342.0
54.823961535,322.0
54.850222100,338.0
54.876482665,337.0
54.902743230,334.0
54.929003795,331.0
54.955264360,347.0
54.981524925,344.0
55.007785490,346.0
55.034046055,342.0
55.060306620,305.0
55.086567185,348.0
55.112827750,311.0
55.139088315,331.0
55.165348880,336.0
55.191609445,319.0
55.217870010,314.0
55.244130575,368.0
55.270391140,324.0
55.296651705,344.0
55.322912270,330.0
55.349172835,366.0
55.375433400,352.0
55.401693965,358.0
55.427954530,379.0
55.454215095,368.0
55.480475660,372.0
55.506736225,351.0
55.532996790,337.0
55.559257355,323.0
55.585517920,344.0
55.611778485,328.0
55.638039050,317.0
55.664299615,364.0
55.690560180,351.0
55.716820745,331.0
55.743081310,393.0
55.769341875,357.0
55.795602440,366.0
55.821863005,334.0
55.848123570,373.0
55.874384135,306.0
55.900644700,331.0
55.926905265,351.0
55.953165830,327.0
55.979426395,369.0
56.005686960,335.0
56.031947525,333.0
56.058208090,330.0
56.084468655,321.0
56.110729220,321.0
56.136989785,363.0
56.163250350,355.0
56.189510915,368.0
56.215771480,333.0
56.242032045,318.0
56.268292610,299.0
56.294553175,361.0
56.320813740,351.0
56.347074305,365.0
56.373334870,313.0
56.399595435,382.0
56.425856000,324.0
56.452116565,338.0
56.478377130,307.0
56.504637695,365.0
56.530898260,313.0
56.557158825,335.0
56.583419390,315.0
56.609679955,360.0
56.635940520,332.0
56.662201085,345.0
56.688461650,343.0
56.714722215,338.0
56.740982780,296.0
56.767243345,333.0
56.793503910,366.0
56.819764475,322.0
56.846025040,359.0
56.872285605,302.0
56.898546170,341.0
56.924806735,341.0
56.951067300,331.0
56.977327865,328.0
57.003588430,319.0
57.029848995,329.0
57.056109560,324.0
57.082370125,325.0
57.108630690,340.0
57.134891255,320.0
57.161151820,307.0
57.187412385,323.0
57.213672950,315.0
57.239933515,338.0
57.266194080,339.0
57.292454645,320.0
57.318715210,312.0
57.344975775,327.0
57.371236340,313.0
57.397496905,328.0
57.423757470,347.0
57.450018035,320.0
57.476278600,352.0
57.502539165,375.0
57.528799730,327.0
57.555060295,344.0
57.581320860,343.0
57.607581425,342.0
57.633841990,319.0
57.660102555,299.0
57.686363120,317.0
57.712623686,339.0
57.738884251,328.0
57.765144816,354.0
57.791405381,334.0
57.817665946,366.0
57.843926511,320.0
57.870187076,334.0
57.896447641,345.0
57.922708206,311.0
57.948968771,308.0
57.975229336,312.0
58.001489901,302.0
58.027750466,319.0
58.054011031,319.0
58.080271596,306.0
58.106532161,313.0
58.132792726,317.0
58.159053291,350.0
58.185313856,336.0
58.211574421,326.0
58.237834986,343.0
58.264095551,333.0
58.290356116,326.0
58.316616681,317.0
58.342877246,342.0
58.369137811,340.0
58.395398376,289.0
58.421658941,322.0
58.447919506,334.0
58.474180071,324.0
58.500440636,301.0
58.526701201,356.0
58.552961766,348.0
58.579222331,335.0
58.605482896,323.0
58.631743461,300.0
58.658004026,308.0
58.684264591,339.0
58.710525156,310.0
58.736785721,351.0
58.763046286,328.0
58.789306851,331.0
58.815567416,303.0
58.841827981,340.0
58.868088546,336.0
58.894349111,316.0
58.920609676,314.0
58.946870241,359.0
58.973130806,346.0
58.999391371,331.0
59.025651936,327.0
59.051912501,335.0
59.078173066,322.0
59.104433631,375.0
59.130694196,302.0
59.156954761,335.0
59.183215326,324.0
59.209475891,315.0
59.235736456,332.0
59.261997021,358.0
59.288257586,308.0
59.314518151,299.0
59.340778716,320.0
59.367039281,360.0
59.393299846,327.0
59.419560411,304.0
59.445820976,303.0
59.472081541,323.0
59.498342106,302.0
59.524602671,329.0
59.550863236,347.0
59.577123801,289.0
59.603384366,350.0
59.629644931,337.0
59.655905496,334.0
59.682166061,313.0
59.708426626,324.0
59.734687191,332.0
59.760947756,307.0
59.787208321,325.0
59.813468886,326.0
59.839729451,340.0
59.865990016,309.0
59.892250581,368.0
59.918511146,305.0
59.944771711,334.0
59.971032276,329.0
59.997292841,327.0
60.023553406,353.0
60.049813971,292.0
60.076074536,317.0
60.102335101,301.0
60.128595666,365.0
60.154856231,312.0
60.181116796,304.0
60.207377361,338.0
60.233637926,320.0
60.259898491,334.0
60.286159056,325.0
60.312419621,283.0
60.338680186,303.0
60.364940751,312.0
60.391201316,300.0
60.417461881,303.0
60.443722446,295.0
60.469983011,324.0
60.496243576,324.0
60.522504141,328.0
60.548764706,329.0
60.575025271,332.0
60.601285836,337.0
60.627546401,275.0
60.653806966,306.0
60.680067531,312.0
60.706328096,304.0
60.732588661,305.0
60.758849226,326.0
60.785109791,282.0
60.811370356,291.0
60.837630921,303.0
60.863891486,331.0
60.890152051,290.0
60.916412616,318.0
60.942673181,328.0
60.968933746,309.0
60.995194311,307.0
61.021454876,332.0
61.047715441,283.0
61.073976006,309.0
61.100236571,308.0
61.126497137,308.0
61.152757702,306.0
61.179018267,292.0
61.205278832,302.0
61.231539397,316.0
61.257799962,314.0
61.284060527,293.0
61.310321092,331.0
61.336581657,315.0
61.362842222,286.0
61.389102787,331.0
61.415363352,298.0
61.441623917,329.0
61.467884482,310.0
61.494145047,276.0
61.520405612,308.0
61.546666177,322.0
61.572926742,305.0
61.599187307,297.0
61.625447872,330.0
61.651708437,344.0
61.677969002,326.0
61.704229567,307.0
61.730490132,321.0
61.756750697,320.0
61.783011262,309.0
61.809271827,305.0
61.835532392,280.0
61.861792957,306.0
61.888053522,291.0
61.914314087,282.0
61.940574652,297.0
61.966835217,309.0
61.993095782,331.0
62.019356347,302.0
62.045616912,311.0
62.071877477,339.0
62.098138042,290.0
62.124398607,300.0
62.150659172,285.0
62.176919737,314.0
62.203180302,329.0
62.229440867,289.0
62.255701432,333.0
62.281961997,323.0
62.308222562,329.0
62.334483127,331.0
62.360743692,313.0
62.387004257,329.0
62.413264822,338.0
62.439525387,352.0
62.465785952,317.0
62.492046517,308.0
62.518307082,300.0
62.544567647,331.0
62.570828212,305.0
62.597088777,316.0
62.623349342,327.0
62.649609907,300.0
62.675870472,292.0
62.702131037,317.0
62.728391602,283.0
62.754652167,296.0
62.780912732,313.0
62.807173297,299.0
62.833433862,293.0
62.859694427,293.0
62.885954992,314.0
62.912215557,319.0
62.938476122,266.0
62.964736687,339.0
62.990997252,275.0
63.017257817,272.0
63.043518382,299.0
63.069778947,300.0
63.096039512,303.0
63.122300077,319.0
63.148560642,300.0
63.174821207,287.0
63.201081772,337.0
63.227342337,330.0
63.253602902,287.0
63.279863467,311.0
63.306124032,333.0
63.332384597,302.0
63.358645162,297.0
63.384905727,314.0
63.411166292,316.0
63.437426857,264.0
63.463687422,308.0
63.489947987,302.0
63.516208552,266.0
63.542469117,293.0
63.568729682,312.0
63.594990247,298.0
63.621250812,284.0
63.647511377,301.0
63.673771942,302.0
63.700032507,301.0
63.726293072,278.0
63.752553637,272.0
63.778814202,336.0
63.805074767,292.0
63.831335332,309.0
63.857595897,313.0
63.883856462,303.0
63.910117027,244.0
63.936377592,306.0
63.962638157,269.0
63.988898722,274.0
64.015159287,294.0
64.041419852,297.0
64.067680417,255.0
64.093940982,290.0
64.120201547,293.0
64.146462112,296.0
64.172722677,301.0
64.198983242,285.0
64.225243807,278.0
64.251504372,279.0
64.277764937,308.0
64.304025502,297.0
64.330286067,302.0
64.356546632,318.0
64.382807197,285.0
64.409067762,284.0
64.435328327,280.0
64.461588892,334.0
64.487849457,308.0
64.514110023,272.0
64.540370588,291.0
64.566631153,268.0
64.592891718,276.0
64.619152283,301.0
64.645412848,337.0
64.671673413,275.0
64.697933978,272.0
64.724194543,273.0
64.750455108,306.0
64.776715673,290.0
64.802976238,315.0
64.829236803,307.0
64.855497368,276.0
64.881757933,273.0
64.908018498,304.0
64.934279063,296.0
64.960539628,320.0
64.986800193,284.0
65.013060758,291.0
65.039321323,270.0
65.065581888,309.0
65.091842453,286.0
65.118103018,285.0
65.144363583,281.0
65.170624148,310.0
65.196884713,272.0
65.223145278,285.0
65.249405843,297.0
65.275666408,272.0
65.301926973,282.0
65.328187538,289.0
65.354448103,315.0
65.380708668,276.0
65.406969233,302.0
65.433229798,314.0
65.459490363,293.0
65.485750928,289.0
65.512011493,277.0
65.538272058,248.0
65.564532623,260.0
65.590793188,298.0
65.617053753,289.0
65.643314318,274.0
65.669574883,290.0
65.695835448,308.0
65.722096013,288.0
65.748356578,291.0
65.774617143,296.0
65.800877708,267.0
65.827138273,256.0
65.853398838,271.0
65.879659403,281.0
65.905919968,259.0
65.932180533,259.0
65.958441098,275.0
65.984701663,252.0
66.010962228,262.0
66.037222793,279.0
66.063483358,308.0
66.089743923,267.0
66.116004488,259.0
66.142265053,291.0
66.168525618,281.0
66.194786183,281.0
66.221046748,274.0
66.247307313,249.0
66.273567878,286.0
66.299828443,263.0
66.326089008,291.0
66.352349573,309.0
66.378610138,273.0
66.404870703,239.0
66.431131268,256.0
66.457391833,306.0
66.483652398,290.0
66.509912963,322.0
66.536173528,296.0
66.562434093,278.0
66.588694658,264.0
66.614955223,264.0
66.641215788,264.0
66.667476353,289.0
66.693736918,251.0
66.719997483,278.0
66.746258048,287.0
66.772518613,270.0
66.798779178,286.0
66.825039743,269.0
66.851300308,273.0
66.877560873,268.0
66.903821438,279.0
66.930082003,259.0
66.956342568,308.0
66.982603133,274.0
67.008863698,277.0
67.035124263,253.0
67.061384828,290.0
67.087645393,309.0
67.113905958,278.0
67.140166523,297.0
67.166427088,265.0
67.192687653,288.0
67.218948218,273.0
67.245208783,281.0
67.271469348,273.0
67.297729913,263.0
67.323990478,270.0
67.350251043,268.0
67.376511608,241.0
67.402772173,269.0
67.429032738,258.0
67.455293303,249.0
67.481553868,278.0
67.507814433,268.0
67.534074998,281.0
67.560335563,309.0
67.586596128,292.0
67.612856693,259.0
67.639117258,292.0
67.665377823,295.0
67.691638388,284.0
67.717898953,287.0
67.744159518,305.0
67.770420083,279.0
67.796680648,261.0
67.822941213,285.0
67.849201778,272.0
67.875462343,295.0
67.901722909,314.0
67.927983474,270.0
67.954244039,282.0
67.980504604,284.0
68.006765169,293.0
68.033025734,287.0
68.059286299,262.0
68.085546864,306.0
68.111807429,273.0
68.138067994,252.0
68.164328559,258.0
68.190589124,261.0
68.216849689,273.0
68.243110254,283.0
68.269370819,244.0
68.295631384,261.0
68.321891949,260.0
68.348152514,262.0
68.374413079,283.0
68.400673644,243.0
68.426934209,252.0
68.453194774,234.0
68.479455339,264.0
68.505715904,244.0
68.531976469,262.0
68.558237034,276.0
68.584497599,263.0
68.610758164,247.0
68.637018729,259.0
68.663279294,275.0
68.689539859,264.0
68.715800424,275.0
68.742060989,262.0
68.768321554,284.0
68.794582119,263.0
68.820842684,273.0
68.847103249,275.0
68.873363814,233.0
68.899624379,264.0
68.925884944,309.0
68.952145509,243.0
68.978406074,253.0
69.004666639,245.0
69.030927204,244.0
69.057187769,277.0
69.083448334,275.0
69.109708899,267.0
69.135969464,293.0
69.162230029,276.0
69.188490594,274.0
69.214751159,280.0
69.241011724,280.0
69.267272289,255.0
69.293532854,298.0
69.319793419,256.0
69.346053984,254.0
69.372314549,263.0
69.398575114,249.0
69.424835679,277.0
69.451096244,251.0
69.477356809,283.0
69.503617374,294.0
69.529877939,258.0
69.556138504,241.0
69.582399069,259.0
69.608659634,253.0
69.634920199,256.0
69.661180764,260.0
69.687441329,229.0
69.713701894,265.0
69.739962459,246.0
69.766223024,264.0
69.792483589,254.0
69.818744154,275.0
69.845004719,268.0
69.871265284,234.0
69.897525849,256.0
69.923786414,269.0
69.950046979,283.0
69.976307544,272.0
70.002568109,275.0
70.028828674,288.0
70.055089239,268.0
70.081349804,289.0
70.107610369,240.0
70.133870934,260.0
70.160131499,289.0
70.186392064,270.0
70.212652629,251.0
70.238913194,279.0
70.265173759,256.0
70.291434324,282.0
70.317694889,254.0
70.343955454,278.0
70.370216019,258.0
70.396476584,260.0
70.422737149,262.0
70.448997714,250.0
70.475258279,259.0
70.501518844,253.0
70.527779409,275.0
70.554039974,243.0
70.580300539,253.0
70.606561104,286.0
70.632821669,262.0
70.659082234,254.0
70.685342799,276.0
70.711603364,264.0
70.737863929,241.0
70.764124494,245.0
70.790385059,223.0
70.816645624,293.0
70.842906189,254.0
70.869166754,259.0
70.895427319,231.0
70.921687884,268.0
70.947948449,262.0
70.974209014,279.0
71.000469579,247.0
71.026730144,257.0
71.052990709,239.0
71.079251274,276.0
71.105511839,274.0
71.131772404,277.0
71.158032969,291.0
71.184293534,274.0
71.210554099,276.0
71.236814664,303.0
71.263075229,248.0
71.289335794,252.0
71.315596360,288.0
71.341856925,260.0
71.368117490,283.0
71.394378055,294.0
71.420638620,265.0
71.446899185,268.0
71.473159750,263.0
71.499420315,263.0
71.525680880,259.0
71.551941445,267.0
71.578202010,243.0
71.604462575,274.0
71.630723140,246.0
71.656983705,256.0
71.683244270,249.0
71.709504835,258.0
71.735765400,277.0
71.762025965,282.0
71.788286530,271.0
71.814547095,265.0
71.840807660,281.0
71.867068225,301.0
71.893328790,264.0
71.919589355,284.0
71.945849920,290.0
71.972110485,280.0
71.998371050,317.0
72.024631615,246.0
72.050892180,288.0
72.077152745,300.0
72.103413310,288.0
72.129673875,293.0
72.155934440,287.0
72.182195005,264.0
72.208455570,294.0
72.234716135,310.0
72.260976700,276.0
72.287237265,283.0
72.313497830,283.0
72.339758395,311.0
72.366018960,271.0
72.392279525,301.0
72.418540090,314.0
72.444800655,303.0
72.471061220,294.0
72.497321785,299.0
72.523582350,263.0
72.549842915,291.0
72.576103480,296.0
72.602364045,270.0
72.628624610,302.0
72.654885175,299.0
72.681145740,331.0
72.707406305,281.0
72.733666870,302.0
72.759927435,296.0
72.786188000,317.0
72.812448565,314.0
72.838709130,308.0
72.864969695,342.0
72.891230260,323.0
72.917490825,327.0
72.943751390,339.0
72.970011955,339.0
72.996272520,345.0
73.022533085,292.0
73.048793650,327.0
73.075054215,339.0
73.101314780,313.0
73.127575345,315.0
73.153835910,326.0
73.180096475,317.0
73.206357040,354.0
73.232617605,351.0
73.258878170,341.0
73.285138735,333.0
73.311399300,367.0
73.337659865,348.0
73.363920430,329.0
73.390180995,348.0
73.416441560,347.0
73.442702125,311.0
73.468962690,356.0
73.495223255,361.0
73.521483820,353.0
73.547744385,364.0
73.574004950,372.0
73.600265515,311.0
73.626526080,380.0
73.652786645,323.0
73.679047210,310.0
73.705307775,364.0
73.731568340,352.0
73.757828905,347.0
73.784089470,351.0
73.810350035,316.0
73.836610600,316.0
73.862871165,319.0
73.889131730,350.0
73.915392295,300.0
73.941652860,306.0
73.967913425,307.0
73.994173990,333.0
74.020434555,311.0
74.046695120,326.0
74.072955685,342.0
74.099216250,290.0
74.125476815,328.0
74.151737380,310.0
74.177997945,296.0
74.204258510,305.0
74.230519075,299.0
74.256779640,274.0
74.283040205,322.0
74.309300770,306.0
74.335561335,299.0
74.361821900,264.0
74.388082465,297.0
74.414343030,303.0
74.440603595,289.0
74.466864160,274.0
74.493124725,271.0
74.519385290,309.0
74.545645855,283.0
74.571906420,264.0
74.598166985,276.0
74.624427550,321.0
74.650688115,257.0
74.676948680,285.0
74.703209246,286.0
74.729469811,286.0
74.755730376,304.0
74.781990941,290.0
74.808251506,317.0
74.834512071,260.0
74.860772636,294.0
74.887033201,320.0
74.913293766,247.0
74.939554331,269.0
74.965814896,297.0
74.992075461,280.0
75.018336026,319.0
75.044596591,290.0
75.070857156,274.0
75.097117721,268.0
75.123378286,296.0
75.149638851,287.0
75.175899416,258.0
75.202159981,268.0
75.228420546,262.0
75.254681111,291.0
75.280941676,283.0
75.307202241,277.0
75.333462806,263.0
75.359723371,257.0
75.385983936,280.0
75.412244501,252.0
75.438505066,301.0
75.464765631,249.0
75.491026196,267.0
75.517286761,278.0
75.543547326,286.0
75.569807891,253.0
75.596068456,266.0
75.622329021,303.0
75.648589586,254.0
75.674850151,234.0
75.701110716,217.0
75.727371281,271.0
75.753631846,284.0
75.779892411,235.0
75.806152976,236.0
75.832413541,250.0
75.858674106,284.0
75.884934671,267.0
75.911195236,238.0
75.937455801,268.0
75.963716366,250.0
75.989976931,274.0
76.016237496,281.0
76.042498061,263.0
76.068758626,257.0
76.095019191,247.0
76.121279756,253.0
76.147540321,268.0
76.173800886,280.0
76.200061451,240.0
76.226322016,250.0
76.252582581,261.0
76.278843146,283.0
76.305103711,248.0
76.331364276,292.0
76.357624841,293.0
76.383885406,242.0
76.410145971,267.0
76.436406536,269.0
76.462667101,244.0
76.488927666,258.0
76.515188231,231.0
76.541448796,227.0
76.567709361,264.0
76.593969926,258.0
76.620230491,273.0
76.646491056,253.0
76.672751621,265.0
76.699012186,249.0
76.725272751,265.0
76.751533316,258.0
76.777793881,233.0
76.804054446,268.0
76.830315011,238.0
76.856575576,250.0
76.882836141,281.0
76.909096706,255.0
76.935357271,265.0
76.961617836,262.0
76.987878401,259.0
77.014138966,229.0
77.040399531,224.0
77.066660096,250.0
77.092920661,263.0
77.119181226,271.0
77.145441791,211.0
77.171702356,263.0
77.197962921,263.0
77.224223486,243.0
77.250484051,245.0
77.276744616,265.0
77.303005181,215.0
77.329265746,251.0
77.355526311,250.0
77.381786876,238.0
77.408047441,276.0
77.434308006,251.0
77.460568571,282.0
77.486829136,254.0
77.513089701,263.0
77.539350266,249.0
77.565610831,251.0
77.591871396,273.0
77.618131961,263.0
77.644392526,261.0
77.670653091,235.0
77.696913656,237.0
77.723174221,239.0
77.749434786,254.0
77.775695351,236.0
77.801955916,245.0
77.828216481,268.0
77.854477046,226.0
77.880737611,293.0
77.906998176,249.0
77.933258741,249.0
77.959519306,234.0
77.985779871,262.0
78.012040436,263.0
78.038301001,272.0
78.064561566,252.0
78.090822131,232.0
78.117082697,237.0
78.143343262,280.0
78.169603827,259.0
78.195864392,234.0
78.222124957,230.0
78.248385522,243.0
78.274646087,260.0
78.300906652,252.0
78.327167217,270.0
78.353427782,274.0
78.379688347,248.0
78.405948912,248.0
78.432209477,244.0
78.458470042,263.0
78.484730607,249.0
78.510991172,237.0
78.537251737,229.0
78.563512302,270.0
78.589772867,246.0
78.616033432,304.0
78.642293997,257.0
78.668554562,251.0
78.694815127,259.0
78.721075692,248.0
78.747336257,254.0
78.773596822,260.0
78.799857387,248.0
78.826117952,252.0
78.852378517,249.0
78.878639082,268.0
78.904899647,265.0
78.931160212,232.0
78.957420777,243.0
78.983681342,240.0
79.009941907,246.0
79.036202472,255.0
79.062463037,242.0
79.088723602,285.0
79.114984167,252.0
79.141244732,255.0
79.167505297,240.0
79.193765862,257.0
79.220026427,269.0
79.246286992,227.0
79.272547557,233.0
79.298808122,243.0
79.325068687,214.0
79.351329252,264.0
79.377589817,254.0
79.403850382,251.0
79.430110947,233.0
79.456371512,228.0
79.482632077,254.0
79.508892642,226.0
79.535153207,240.0
79.561413772,222.0
79.587674337,217.0
79.613934902,233.0
79.640195467,247.0
79.666456032,254.0
79.692716597,235.0
79.718977162,213.0
79.745237727,245.0
79.771498292,267.0
79.797758857,250.0
79.824019422,268.0
79.850279987,215.0
79.876540552,229.0
79.902801117,252.0
79.929061682,217.0
79.955322247,233.0
79.981582812,214.0
80.007843377,229.0
80.034103942,240.0
80.060364507,268.0
80.086625072,266.0
80.112885637,233.0
80.139146202,221.0
80.165406767,235.0
80.191667332,189.0
80.217927897,267.0
80.244188462,241.0
80.270449027,222.0
80.296709592,235.0
80.322970157,238.0
80.349230722,228.0
80.375491287,240.0
80.401751852,247.0
80.428012417,237.0
80.454272982,231.0
80.480533547,219.0
80.506794112,218.0
80.533054677,248.0
80.559315242,270.0
80.585575807,259.0
80.611836372,228.0
80.638096937,276.0
80.664357502,250.0
80.690618067,247.0
80.716878632,239.0
80.743139197,219.0
80.769399762,232.0
80.795660327,247.0
80.821920892,229.0
80.848181457,266.0
80.874442022,219.0
80.900702587,235.0
80.926963152,236.0
80.953223717,229.0
80.979484282,253.0
81.005744847,247.0
81.032005412,260.0
81.058265977,239.0
81.084526542,219.0
81.110787107,234.0
81.137047672,232.0
81.163308237,244.0
81.189568802,252.0
81.215829367,223.0
81.242089932,267.0
81.268350497,241.0
81.294611062,222.0
81.320871627,236.0
81.347132192,240.0
81.373392757,234.0
81.399653322,234.0
81.425913887,239.0
81.452174452,237.0
81.478435017,236.0
81.504695583,262.0
81.530956148,197.0
81.557216713,208.0
81.583477278,222.0
81.609737843,214.0
81.635998408,232.0
81.662258973,199.0
81.688519538,255.0
81.714780103,243.0
81.741040668,216.0
81.767301233,215.0
81.793561798,246.0
81.819822363,228.0
81.846082928,201.0
81.872343493,203.0
81.898604058,204.0
81.924864623,212.0
81.951125188,232.0
81.977385753,203.0
82.003646318,229.0
82.029906883,245.0
82.056167448,235.0
82.082428013,223.0
82.108688578,200.0
82.134949143,234.0
82.161209708,220.0
82.187470273,241.0
82.213730838,210.0
82.239991403,279.0
82.266251968,245.0
82.292512533,200.0
82.318773098,224.0
82.345033663,221.0
82.371294228,239.0
82.397554793,234.0
82.423815358,223.0
82.450075923,234.0
82.476336488,250.0
82.502597053,245.0
82.528857618,213.0
82.555118183,231.0
82.581378748,251.0
82.607639313,197.0
82.633899878,225.0
82.660160443,226.0
82.686421008,202.0
82.712681573,223.0
82.738942138,236.0
82.765202703,263.0
82.791463268,221.0
82.817723833,227.0
82.843984398,241.0
82.870244963,220.0
82.896505528,226.0
82.922766093,208.0
82.949026658,247.0
82.975287223,268.0
83.001547788,254.0
83.027808353,232.0
83.054068918,245.0
83.080329483,216.0
83.106590048,246.0
83.132850613,211.0
83.159111178,205.0
83.185371743,223.0
83.211632308,224.0
83.237892873,212.0
83.264153438,242.0
83.290414003,236.0
83.316674568,224.0
83.342935133,199.0
83.369195698,201.0
83.395456263,227.0
83.421716828,234.0
83.447977393,236.0
83.474237958,203.0
83.500498523,222.0
83.526759088,205.0
83.553019653,196.0
83.579280218,224.0
83.605540783,217.0
83.631801348,239.0
83.658061913,241.0
83.684322478,227.0
83.710583043,219.0
83.736843608,212.0
83.763104173,236.0
83.789364738,196.0
83.815625303,224.0
83.841885868,236.0
83.868146433,240.0
83.894406998,223.0
83.920667563,204.0
83.946928128,201.0
83.973188693,243.0
83.999449258,244.0
84.025709823,207.0
84.051970388,226.0
84.078230953,217.0
84.104491518,221.0
84.130752083,198.0
84.157012648,225.0
84.183273213,206.0
84.209533778,218.0
84.235794343,212.0
84.262054908,224.0
84.288315473,249.0
84.314576038,201.0
84.340836603,231.0
84.367097168,208.0
84.393357733,231.0
84.419618298,208.0
84.445878863,191.0
84.472139428,223.0
84.498399993,250.0
84.524660558,219.0
84.550921123,209.0
84.577181688,207.0
84.603442253,217.0
84.629702818,227.0
84.655963383,229.0
84.682223948,215.0
84.708484513,209.0
84.734745078,218.0
84.761005643,230.0
84.787266208,223.0
84.813526773,211.0
84.839787338,207.0
84.866047903,206.0
84.892308469,232.0
84.918569034,259.0
84.944829599,194.0
84.971090164,224.0
84.997350729,218.0
85.023611294,208.0
85.049871859,241.0
85.076132424,230.0
85.102392989,215.0
85.128653554,193.0
85.154914119,228.0
85.181174684,221.0
85.207435249,248.0
85.233695814,195.0
85.259956379,211.0
85.286216944,186.0
85.312477509,223.0
85.338738074,221.0
85.364998639,211.0
85.391259204,238.0
85.417519769,218.0
85.443780334,220.0
85.470040899,225.0
85.496301464,208.0
85.522562029,219.0
85.548822594,219.0
85.575083159,221.0
85.601343724,228.0
85.627604289,209.0
85.653864854,232.0
85.680125419,202.0
85.706385984,220.0
85.732646549,227.0
85.758907114,220.0
85.785167679,225.0
85.811428244,217.0
85.837688809,208.0
85.863949374,227.0
85.890209939,208.0
85.916470504,221.0
85.942731069,211.0
85.968991634,201.0
85.995252199,218.0
86.021512764,208.0
86.047773329,225.0
86.074033894,240.0
86.100294459,225.0
86.126555024,235.0
86.152815589,228.0
86.179076154,214.0
86.205336719,225.0
86.231597284,208.0
86.257857849,228.0
86.284118414,187.0
86.310378979,224.0
86.336639544,224.0
86.362900109,207.0
86.389160674,242.0
86.415421239,228.0
86.441681804,201.0
86.467942369,225.0
86.494202934,234.0
86.520463499,209.0
86.546724064,211.0
86.572984629,210.0
86.599245194,203.0
86.625505759,211.0
86.651766324,221.0
86.678026889,207.0
86.704287454,226.0
86.730548019,224.0
86.756808584,231.0
86.783069149,196.0
86.809329714,192.0
86.835590279,212.0
86.861850844,248.0
86.888111409,221.0
86.914371974,182.0
86.940632539,235.0
86.966893104,242.0
86.993153669,220.0
87.019414234,207.0
87.045674799,215.0
87.071935364,229.0
87.098195929,217.0
87.124456494,245.0
87.150717059,225.0
87.176977624,207.0
87.203238189,216.0
87.229498754,245.0
87.255759319,227.0
87.282019884,200.0
87.308280449,215.0
87.334541014,220.0
87.360801579,255.0
87.387062144,227.0
87.413322709,225.0
87.439583274,222.0
87.465843839,245.0
87.492104404,207.0
87.518364969,233.0
87.544625534,237.0
87.570886099,245.0
87.597146664,229.0
87.623407229,223.0
87.649667794,202.0
87.675928359,246.0
87.702188924,219.0
87.728449489,232.0
87.754710054,224.0
87.780970619,213.0
87.807231184,240.0
87.833491749,217.0
87.859752314,255.0
87.886012879,233.0
87.912273444,235.0
87.938534009,215.0
87.964794574,213.0
87.991055139,234.0
88.017315704,243.0
88.043576269,233.0
88.069836834,194.0
88.096097399,200.0
88.122357964,222.0
88.148618529,211.0
88.174879094,221.0
88.201139659,213.0
88.227400224,246.0
88.253660789,237.0
88.279921354,239.0
88.306181920,226.0
88.332442485,218.0
88.358703050,244.0
88.384963615,228.0
88.411224180,241.0
88.437484745,224.0
88.463745310,226.0
88.490005875,225.0
88.516266440,254.0
88.542527005,211.0
88.568787570,239.0
88.595048135,229.0
88.621308700,228.0
88.647569265,191.0
88.673829830,224.0
88.700090395,218.0
88.726350960,245.0
88.752611525,226.0
88.778872090,209.0
88.805132655,222.0
88.831393220,211.0
88.857653785,257.0
88.883914350,204.0
88.910174915,229.0
88.936435480,215.0
88.962696045,234.0
88.988956610,231.0
89.015217175,225.0
89.041477740,223.0
89.067738305,204.0
89.093998870,232.0
89.120259435,207.0
89.146520000,221.0
89.172780565,204.0
89.199041130,214.0
89.225301695,213.0
89.251562260,214.0
89.277822825,171.0
89.304083390,236.0
89.330343955,208.0
89.356604520,237.0
89.382865085,228.0
89.409125650,214.0
89.435386215,218.0
89.461646780,178.0
89.487907345,231.0
89.514167910,226.0
89.540428475,221.0
89.566689040,200.0
89.592949605,251.0
89.619210170,201.0
89.645470735,228.0
89.671731300,195.0
89.697991865,243.0
89.724252430,236.0
89.750512995,198.0
89.776773560,231.0
89.803034125,220.0
89.829294690,224.0
89.855555255,199.0
89.881815820,212.0
89.908076385,191.0
89.934336950,211.0
89.960597515,208.0
89.986858080,211.0
