[Measurement conditions]
Sample identification,
Comment - 1,"Configuration=Stage for flat samples/holders, Owner=User-1, Creation date=3/27/2015 11:56:23 AM"
Comment - 2,"Goniometer=Theta/Theta; Minimum step size 2Theta:0.0001; Minimum step size Omega:0.0001"
Comment - 3,"Sample stage=Stage for flat samples/holders"
Comment - 4,"Diffractometer system=EMPYREAN"
Comment - 5,"Measurement program=C:\PANalytical\Data Collector\Programs\Powder - Copy.xrdmp, Identifier={BEEA10DD-8FD6-4721-8940-4FBC5A4262A1}"
Comment - 6,"Fine Calibration Offset for 2Theta = -0.0130 deg"
Comment - 7,"Fine Calibration Offset for Omega = -0.0070 deg"
Anode material,Cu
K-Alpha1 wavelength,1.5405980
K-Alpha2 wavelength,1.5444260
Ratio K-Alpha2/K-Alpha1,0.500
Divergence slit,Fixed,0.38mm
Monochromator used,NO
Generator voltage, 40
Tube current, 35
File date and time,24/Jul/2017 16:07
Unit cell,
h k l, 0 0 0
Scan axis,Gonio
Scan range,5.020799997,89.999988363
Scan step size,0.0262606
No. of points, 3236
Scan type,CONTINUOUS
Time per step,18.615
[Scan points]
Angle,Intensity
5.033930280,1242.0
5.060190845,1200.0
5.086451410,1229.0
5.112711975,1214.0
5.138972540,1242.0
5.165233105,1235.0
5.191493670,1211.0
5.217754235,1151.0
5.244014800,1229.0
5.270275365,1267.0
5.296535930,1148.0
5.322796495,1218.0
5.349057060,1225.0
5.375317625,1204.0
5.401578190,1233.0
5.427838755,1227.0
5.454099320,1207.0
5.480359885,1226.0
5.506620450,1205.0
5.532881015,1214.0
5.559141580,1213.0
5.585402145,1146.0
5.611662710,1112.0
5.637923275,1235.0
5.664183840,1222.0
5.690444405,1229.0
5.716704970,1225.0
5.742965535,1200.0
5.769226100,1201.0
5.795486665,1206.0
5.821747230,1236.0
5.848007795,1227.0
5.874268360,1211.0
5.900528925,1224.0
5.926789490,1102.0
5.953050055,1250.0
5.979310620,1190.0
6.005571185,1196.0
6.031831750,1291.0
6.058092315,1183.0
6.084352880,1167.0
6.110613445,1224.0
6.136874010,1247.0
6.163134575,1213.0
6.189395140,1187.0
6.215655705,1297.0
6.241916270,1220.0
6.268176835,1237.0
6.294437400,1194.0
6.320697965,1246.0
6.346958530,1200.0
6.373219095,1189.0
6.399479660,1160.0
6.425740225,1261.0
6.452000790,1207.0
6.478261355,1202.0
6.504521920,1250.0
6.530782485,1293.0
6.557043050,1285.0
6.583303615,1287.0
6.609564180,1222.0
6.635824745,1237.0
6.662085310,1249.0
6.688345875,1308.0
6.714606440,1217.0
6.740867006,1263.0
6.767127571,1258.0
6.793388136,1231.0
6.819648701,1243.0
6.845909266,1257.0
6.872169831,1218.0
6.898430396,1165.0
6.924690961,1221.0
6.950951526,1259.0
6.977212091,1234.0
7.003472656,1302.0
7.029733221,1279.0
7.055993786,1252.0
7.082254351,1266.0
7.108514916,1232.0
7.134775481,1313.0
7.161036046,1313.0
7.187296611,1232.0
7.213557176,1310.0
7.239817741,1306.0
7.266078306,1279.0
7.292338871,1261.0
7.318599436,1230.0
7.344860001,1347.0
7.371120566,1239.0
7.397381131,1292.0
7.423641696,1287.0
7.449902261,1241.0
7.476162826,1248.0
7.502423391,1249.0
7.528683956,1299.0
7.554944521,1349.0
7.581205086,1258.0
7.607465651,1291.0
7.633726216,1328.0
7.659986781,1303.0
7.686247346,1285.0
7.712507911,1280.0
7.738768476,1282.0
7.765029041,1252.0
7.791289606,1216.0
7.817550171,1250.0
7.843810736,1316.0
7.870071301,1340.0
7.896331866,1247.0
7.922592431,1310.0
7.948852996,1298.0
7.975113561,1321.0
8.001374126,1302.0
8.027634691,1218.0
8.053895256,1339.0
8.080155821,1286.0
8.106416386,1276.0
8.132676951,1304.0
8.158937516,1267.0
8.185198081,1284.0
8.211458646,1274.0
8.237719211,1296.0
8.263979776,1305.0
8.290240341,1362.0
8.316500906,1334.0
8.342761471,1358.0
8.369022036,1262.0
8.395282601,1261.0
8.421543166,1292.0
8.447803731,1343.0
8.474064296,1321.0
8.500324861,1290.0
8.526585426,1395.0
8.552845991,1355.0
8.579106556,1292.0
8.605367121,1258.0
8.631627686,1322.0
8.657888251,1268.0
8.684148816,1321.0
8.710409381,1286.0
8.736669946,1340.0
8.762930511,1365.0
8.789191076,1313.0
8.815451641,1273.0
8.841712206,1265.0
8.867972771,1344.0
8.894233336,1372.0
8.920493901,1277.0
8.946754466,1268.0
8.973015031,1348.0
8.999275596,1337.0
9.025536161,1367.0
9.051796726,1300.0
9.078057291,1335.0
9.104317856,1355.0
9.130578421,1328.0
9.156838986,1323.0
9.183099551,1301.0
9.209360116,1294.0
9.235620681,1372.0
9.261881246,1260.0
9.288141811,1349.0
9.314402376,1280.0
9.340662941,1243.0
9.366923506,1306.0
9.393184071,1334.0
9.419444636,1405.0
9.445705201,1338.0
9.471965766,1251.0
9.498226331,1371.0
9.524486896,1208.0
9.550747461,1338.0
9.577008026,1291.0
9.603268591,1239.0
9.629529156,1333.0
9.655789721,1278.0
9.682050286,1295.0
9.708310851,1207.0
9.734571416,1184.0
9.760831981,1250.0
9.787092546,1324.0
9.813353111,1269.0
9.839613676,1264.0
9.865874241,1229.0
9.892134806,1329.0
9.918395371,1296.0
9.944655936,1271.0
9.970916501,1229.0
9.997177066,1247.0
10.023437631,1324.0
10.049698196,1281.0
10.075958761,1265.0
10.102219326,1323.0
10.128479891,1307.0
10.154740457,1310.0
10.181001022,1232.0
10.207261587,1250.0
10.233522152,1243.0
10.259782717,1247.0
10.286043282,1176.0
10.312303847,1246.0
10.338564412,1249.0
10.364824977,1321.0
10.391085542,1252.0
10.417346107,1194.0
10.443606672,1259.0
10.469867237,1277.0
10.496127802,1229.0
10.522388367,1247.0
10.548648932,1262.0
10.574909497,1191.0
10.601170062,1151.0
10.627430627,1234.0
10.653691192,1269.0
10.679951757,1185.0
10.706212322,1232.0
10.732472887,1219.0
10.758733452,1183.0
10.784994017,1179.0
10.811254582,1307.0
10.837515147,1222.0
10.863775712,1248.0
10.890036277,1291.0
10.916296842,1226.0
10.942557407,1190.0
10.968817972,1201.0
10.995078537,1223.0
11.021339102,1194.0
11.047599667,1236.0
11.073860232,1270.0
11.100120797,1194.0
11.126381362,1221.0
11.152641927,1200.0
11.178902492,1263.0
11.205163057,1183.0
11.231423622,1268.0
11.257684187,1228.0
11.283944752,1214.0
11.310205317,1159.0
11.336465882,1209.0
11.362726447,1185.0
11.388987012,1238.0
11.415247577,1238.0
11.441508142,1150.0
11.467768707,1180.0
11.494029272,1199.0
11.520289837,1222.0
11.546550402,1173.0
11.572810967,1204.0
11.599071532,1193.0
11.625332097,1234.0
11.651592662,1209.0
11.677853227,1241.0
11.704113792,1152.0
11.730374357,1218.0
11.756634922,1148.0
11.782895487,1222.0
11.809156052,1148.0
11.835416617,1149.0
11.861677182,1194.0
11.887937747,1229.0
11.914198312,1224.0
11.940458877,1152.0
11.966719442,1121.0
11.992980007,1164.0
12.019240572,1213.0
12.045501137,1223.0
12.071761702,1198.0
12.098022267,1147.0
12.124282832,1150.0
12.150543397,1176.0
12.176803962,1209.0
12.203064527,1178.0
12.229325092,1168.0
12.255585657,1182.0
12.281846222,1119.0
12.308106787,1165.0
12.334367352,1194.0
12.360627917,1187.0
12.386888482,1166.0
12.413149047,1196.0
12.439409612,1129.0
12.465670177,1158.0
12.491930742,1186.0
12.518191307,1151.0
12.544451872,1220.0
12.570712437,1162.0
12.596973002,1117.0
12.623233567,1211.0
12.649494132,1201.0
12.675754697,1220.0
12.702015262,1153.0
12.728275827,1166.0
12.754536392,1138.0
12.780796957,1129.0
12.807057522,1215.0
12.833318087,1234.0
12.859578652,1167.0
12.885839217,1132.0
12.912099782,1123.0
12.938360347,1196.0
12.964620912,1131.0
12.990881477,1170.0
13.017142042,1136.0
13.043402607,1186.0
13.069663172,1232.0
13.095923737,1166.0
13.122184302,1250.0
13.148444867,1188.0
13.174705432,1174.0
13.200965997,1144.0
13.227226562,1276.0
13.253487127,1092.0
13.279747692,1156.0
13.306008257,1194.0
13.332268822,1172.0
13.358529387,1192.0
13.384789952,1162.0
13.411050517,1232.0
13.437311082,1164.0
13.463571647,1140.0
13.489832212,1208.0
13.516092777,1168.0
13.542353343,1245.0
13.568613908,1224.0
13.594874473,1268.0
13.621135038,1192.0
13.647395603,1249.0
13.673656168,1168.0
13.699916733,1157.0
13.726177298,1157.0
13.752437863,1209.0
13.778698428,1239.0
13.804958993,1188.0
13.831219558,1217.0
13.857480123,1209.0
13.883740688,1188.0
13.910001253,1187.0
13.936261818,1303.0
13.962522383,1236.0
13.988782948,1179.0
14.015043513,1262.0
14.041304078,1278.0
14.067564643,1169.0
14.093825208,1204.0
14.120085773,1208.0
14.146346338,1236.0
14.172606903,1196.0
14.198867468,1207.0
14.225128033,1212.0
14.251388598,1226.0
14.277649163,1144.0
14.303909728,1148.0
14.330170293,1215.0
14.356430858,1199.0
14.382691423,1247.0
14.408951988,1310.0
14.435212553,1259.0
14.461473118,1213.0
14.487733683,1292.0
14.513994248,1193.0
14.540254813,1190.0
14.566515378,1216.0
14.592775943,1213.0
14.619036508,1202.0
14.645297073,1190.0
14.671557638,1187.0
14.697818203,1272.0
14.724078768,1205.0
14.750339333,1210.0
14.776599898,1184.0
14.802860463,1204.0
14.829121028,1198.0
14.855381593,1242.0
14.881642158,1194.0
14.907902723,1215.0
14.934163288,1162.0
14.960423853,1162.0
14.986684418,1190.0
15.012944983,1165.0
15.039205548,1165.0
15.065466113,1240.0
15.091726678,1178.0
15.117987243,1155.0
15.144247808,1184.0
15.170508373,1211.0
15.196768938,1152.0
15.223029503,1162.0
15.249290068,1209.0
15.275550633,1133.0
15.301811198,1134.0
15.328071763,1145.0
15.354332328,1177.0
15.380592893,1107.0
15.406853458,1056.0
15.433114023,1122.0
15.459374588,1118.0
15.485635153,1094.0
15.511895718,1100.0
15.538156283,1029.0
15.564416848,1082.0
15.590677413,1114.0
15.616937978,1060.0
15.643198543,1122.0
15.669459108,1114.0
15.695719673,1067.0
15.721980238,1055.0
15.748240803,1009.0
15.774501368,1024.0
15.800761933,1079.0
15.827022498,1000.0
15.853283063,1007.0
15.879543628,1045.0
15.905804193,1079.0
15.932064758,992.0
15.958325323,1015.0
15.984585888,936.0
16.010846453,985.0
16.037107018,980.0
16.063367583,985.0
16.089628148,975.0
16.115888713,946.0
16.142149278,986.0
16.168409843,988.0
16.194670408,1020.0
16.220930973,947.0
16.247191538,914.0
16.273452103,1000.0
16.299712668,949.0
16.325973233,945.0
16.352233798,950.0
16.378494363,973.0
16.404754928,948.0
16.431015493,966.0
16.457276058,937.0
16.483536623,941.0
16.509797188,880.0
16.536057753,918.0
16.562318318,947.0
16.588578883,930.0
16.614839448,922.0
16.641100013,970.0
16.667360578,943.0
16.693621143,952.0
16.719881708,924.0
16.746142273,867.0
16.772402838,923.0
16.798663403,924.0
16.824923968,947.0
16.851184533,936.0
16.877445098,925.0
16.903705663,920.0
16.929966229,919.0
16.956226794,897.0
16.982487359,902.0
17.008747924,904.0
17.035008489,978.0
17.061269054,876.0
17.087529619,881.0
17.113790184,873.0
17.140050749,892.0
17.166311314,900.0
17.192571879,837.0
17.218832444,876.0
17.245093009,883.0
17.271353574,897.0
17.297614139,882.0
17.323874704,879.0
17.350135269,921.0
17.376395834,897.0
17.402656399,935.0
17.428916964,902.0
17.455177529,857.0
17.481438094,911.0
17.507698659,861.0
17.533959224,875.0
17.560219789,855.0
17.586480354,873.0
17.612740919,821.0
17.639001484,841.0
17.665262049,910.0
17.691522614,865.0
17.717783179,867.0
17.744043744,830.0
17.770304309,877.0
17.796564874,869.0
17.822825439,926.0
17.849086004,859.0
17.875346569,868.0
17.901607134,885.0
17.927867699,851.0
17.954128264,859.0
17.980388829,895.0
18.006649394,892.0
18.032909959,853.0
18.059170524,824.0
18.085431089,880.0
18.111691654,873.0
18.137952219,871.0
18.164212784,824.0
18.190473349,846.0
18.216733914,846.0
18.242994479,840.0
18.269255044,883.0
18.295515609,796.0
18.321776174,862.0
18.348036739,870.0
18.374297304,844.0
18.400557869,860.0
18.426818434,902.0
18.453078999,869.0
18.479339564,870.0
18.505600129,842.0
18.531860694,841.0
18.558121259,872.0
18.584381824,881.0
18.610642389,835.0
18.636902954,836.0
18.663163519,894.0
18.689424084,840.0
18.715684649,871.0
18.741945214,860.0
18.768205779,835.0
18.794466344,795.0
18.820726909,839.0
18.846987474,834.0
18.873248039,843.0
18.899508604,875.0
18.925769169,816.0
18.952029734,842.0
18.978290299,847.0
19.004550864,888.0
19.030811429,894.0
19.057071994,816.0
19.083332559,862.0
19.109593124,891.0
19.135853689,856.0
19.162114254,811.0
19.188374819,868.0
19.214635384,848.0
19.240895949,832.0
19.267156514,857.0
19.293417079,865.0
19.319677644,817.0
19.345938209,845.0
19.372198774,846.0
19.398459339,808.0
19.424719904,845.0
19.450980469,865.0
19.477241034,892.0
19.503501599,842.0
19.529762164,833.0
19.556022729,831.0
19.582283294,842.0
19.608543859,869.0
19.634804424,886.0
19.661064989,823.0
19.687325554,860.0
19.713586119,845.0
19.739846684,836.0
19.766107249,895.0
19.792367814,872.0
19.818628379,807.0
19.844888944,826.0
19.871149509,825.0
19.897410074,826.0
19.923670639,866.0
19.949931204,858.0
19.976191769,799.0
20.002452334,850.0
20.028712899,884.0
20.054973464,843.0
20.081234029,832.0
20.107494594,827.0
20.133755159,856.0
20.160015724,883.0
20.186276289,848.0
20.212536854,879.0
20.238797419,835.0
20.265057984,839.0
20.291318549,816.0
20.317579114,863.0
20.343839680,830.0
20.370100245,812.0
20.396360810,822.0
20.422621375,849.0
20.448881940,841.0
20.475142505,859.0
20.501403070,837.0
20.527663635,901.0
20.553924200,863.0
20.580184765,829.0
20.606445330,914.0
20.632705895,830.0
20.658966460,879.0
20.685227025,836.0
20.711487590,836.0
20.737748155,866.0
20.764008720,842.0
20.790269285,849.0
20.816529850,858.0
20.842790415,842.0
20.869050980,883.0
20.895311545,843.0
20.921572110,826.0
20.947832675,788.0
20.974093240,853.0
21.000353805,857.0
21.026614370,833.0
21.052874935,848.0
21.079135500,872.0
21.105396065,878.0
21.131656630,861.0
21.157917195,844.0
21.184177760,850.0
21.210438325,888.0
21.236698890,904.0
21.262959455,837.0
21.289220020,850.0
21.315480585,846.0
21.341741150,868.0
21.368001715,886.0
21.394262280,860.0
21.420522845,853.0
21.446783410,865.0
21.473043975,878.0
21.499304540,872.0
21.525565105,887.0
21.551825670,815.0
21.578086235,862.0
21.604346800,869.0
21.630607365,891.0
21.656867930,853.0
21.683128495,833.0
21.709389060,838.0
21.735649625,808.0
21.761910190,867.0
21.788170755,802.0
21.814431320,893.0
21.840691885,864.0
21.866952450,847.0
21.893213015,858.0
21.919473580,829.0
21.945734145,942.0
21.971994710,907.0
21.998255275,873.0
22.024515840,902.0
22.050776405,868.0
22.077036970,865.0
22.103297535,878.0
22.129558100,824.0
22.155818665,864.0
22.182079230,894.0
22.208339795,864.0
22.234600360,857.0
22.260860925,823.0
22.287121490,835.0
22.313382055,884.0
22.339642620,817.0
22.365903185,850.0
22.392163750,859.0
22.418424315,829.0
22.444684880,829.0
22.470945445,850.0
22.497206010,858.0
22.523466575,857.0
22.549727140,816.0
22.575987705,869.0
22.602248270,902.0
22.628508835,824.0
22.654769400,848.0
22.681029965,837.0
22.707290530,811.0
22.733551095,788.0
22.759811660,867.0
22.786072225,812.0
22.812332790,827.0
22.838593355,777.0
22.864853920,801.0
22.891114485,842.0
22.917375050,826.0
22.943635615,864.0
22.969896180,830.0
22.996156745,864.0
23.022417310,803.0
23.048677875,858.0
23.074938440,832.0
23.101199005,799.0
23.127459570,864.0
23.153720135,887.0
23.179980700,844.0
23.206241265,856.0
23.232501830,875.0
23.258762395,851.0
23.285022960,840.0
23.311283525,840.0
23.337544090,840.0
23.363804655,873.0
23.390065220,838.0
23.416325785,872.0
23.442586350,852.0
23.468846915,864.0
23.495107480,841.0
23.521368045,888.0
23.547628610,792.0
23.573889175,770.0
23.600149740,844.0
23.626410305,872.0
23.652670870,880.0
23.678931435,883.0
23.705192000,912.0
23.731452566,834.0
23.757713131,854.0
23.783973696,853.0
23.810234261,813.0
23.836494826,857.0
23.862755391,856.0
23.889015956,784.0
23.915276521,879.0
23.941537086,848.0
23.967797651,821.0
23.994058216,886.0
24.020318781,856.0
24.046579346,829.0
24.072839911,810.0
24.099100476,882.0
24.125361041,863.0
24.151621606,806.0
24.177882171,819.0
24.204142736,902.0
24.230403301,831.0
24.256663866,781.0
24.282924431,852.0
24.309184996,835.0
24.335445561,826.0
24.361706126,818.0
24.387966691,887.0
24.414227256,849.0
24.440487821,826.0
24.466748386,815.0
24.493008951,861.0
24.519269516,846.0
24.545530081,822.0
24.571790646,815.0
24.598051211,839.0
24.624311776,833.0
24.650572341,847.0
24.676832906,843.0
24.703093471,866.0
24.729354036,898.0
24.755614601,846.0
24.781875166,812.0
24.808135731,848.0
24.834396296,805.0
24.860656861,808.0
24.886917426,796.0
24.913177991,829.0
24.939438556,838.0
24.965699121,823.0
24.991959686,838.0
25.018220251,819.0
25.044480816,748.0
25.070741381,844.0
25.097001946,782.0
25.123262511,861.0
25.149523076,828.0
25.175783641,772.0
25.202044206,834.0
25.228304771,817.0
25.254565336,812.0
25.280825901,837.0
25.307086466,844.0
25.333347031,768.0
25.359607596,818.0
25.385868161,792.0
25.412128726,845.0
25.438389291,790.0
25.464649856,803.0
25.490910421,861.0
25.517170986,805.0
25.543431551,770.0
25.569692116,803.0
25.595952681,879.0
25.622213246,829.0
25.648473811,838.0
25.674734376,806.0
25.700994941,800.0
25.727255506,787.0
25.753516071,759.0
25.779776636,828.0
25.806037201,803.0
25.832297766,856.0
25.858558331,755.0
25.884818896,812.0
25.911079461,793.0
25.937340026,781.0
25.963600591,818.0
25.989861156,772.0
26.016121721,792.0
26.042382286,805.0
26.068642851,800.0
26.094903416,843.0
26.121163981,856.0
26.147424546,764.0
26.173685111,791.0
26.199945676,750.0
26.226206241,779.0
26.252466806,768.0
26.278727371,806.0
26.304987936,785.0
26.331248501,753.0
26.357509066,792.0
26.383769631,843.0
26.410030196,834.0
26.436290761,825.0
26.462551326,770.0
26.488811891,735.0
26.515072456,738.0
26.541333021,788.0
26.567593586,805.0
26.593854151,738.0
26.620114716,796.0
26.646375281,786.0
26.672635846,778.0
26.698896411,802.0
26.725156976,782.0
26.751417541,720.0
26.777678106,770.0
26.803938671,804.0
26.830199236,798.0
26.856459801,743.0
26.882720366,763.0
26.908980931,730.0
26.935241496,797.0
26.961502061,772.0
26.987762626,736.0
27.014023191,790.0
27.040283756,779.0
27.066544321,739.0
27.092804886,770.0
27.119065451,724.0
27.145326017,778.0
27.171586582,762.0
27.197847147,791.0
27.224107712,721.0
27.250368277,741.0
27.276628842,745.0
27.302889407,753.0
27.329149972,771.0
27.355410537,805.0
27.381671102,731.0
27.407931667,755.0
27.434192232,799.0
27.460452797,758.0
27.486713362,778.0
27.512973927,779.0
27.539234492,751.0
27.565495057,788.0
27.591755622,766.0
27.618016187,763.0
27.644276752,799.0
27.670537317,778.0
27.696797882,739.0
27.723058447,757.0
27.749319012,861.0
27.775579577,798.0
27.801840142,732.0
27.828100707,741.0
27.854361272,765.0
27.880621837,757.0
27.906882402,798.0
27.933142967,766.0
27.959403532,733.0
27.985664097,779.0
28.011924662,769.0
28.038185227,762.0
28.064445792,726.0
28.090706357,724.0
28.116966922,745.0
28.143227487,774.0
28.169488052,718.0
28.195748617,758.0
28.222009182,708.0
28.248269747,716.0
28.274530312,680.0
28.300790877,761.0
28.327051442,767.0
28.353312007,713.0
28.379572572,763.0
28.405833137,724.0
28.432093702,789.0
28.458354267,749.0
28.484614832,757.0
28.510875397,742.0
28.537135962,740.0
28.563396527,717.0
28.589657092,726.0
28.615917657,718.0
28.642178222,749.0
28.668438787,696.0
28.694699352,761.0
28.720959917,687.0
28.747220482,738.0
28.773481047,715.0
28.799741612,725.0
28.826002177,740.0
28.852262742,749.0
28.878523307,756.0
28.904783872,702.0
28.931044437,753.0
28.957305002,711.0
28.983565567,736.0
29.009826132,754.0
29.036086697,703.0
29.062347262,738.0
29.088607827,744.0
29.114868392,729.0
29.141128957,733.0
29.167389522,726.0
29.193650087,731.0
29.219910652,678.0
29.246171217,696.0
29.272431782,703.0
29.298692347,740.0
29.324952912,729.0
29.351213477,708.0
29.377474042,679.0
29.403734607,763.0
29.429995172,734.0
29.456255737,718.0
29.482516302,711.0
29.508776867,673.0
29.535037432,722.0
29.561297997,683.0
29.587558562,730.0
29.613819127,705.0
29.640079692,711.0
29.666340257,707.0
29.692600822,672.0
29.718861387,720.0
29.745121952,687.0
29.771382517,750.0
29.797643082,737.0
29.823903647,741.0
29.850164212,677.0
29.876424777,656.0
29.902685342,678.0
29.928945907,730.0
29.955206472,697.0
29.981467037,744.0
30.007727602,697.0
30.033988167,729.0
30.060248732,689.0
30.086509297,718.0
30.112769862,693.0
30.139030427,698.0
30.165290992,674.0
30.191551557,695.0
30.217812122,705.0
30.244072687,708.0
30.270333252,679.0
30.296593817,654.0
30.322854382,698.0
30.349114947,705.0
30.375375512,687.0
30.401636077,712.0
30.427896642,721.0
30.454157207,707.0
30.480417772,633.0
30.506678337,638.0
30.532938903,678.0
30.559199468,683.0
30.585460033,672.0
30.611720598,685.0
30.637981163,703.0
30.664241728,685.0
30.690502293,672.0
30.716762858,713.0
30.743023423,662.0
30.769283988,655.0
30.795544553,640.0
30.821805118,643.0
30.848065683,726.0
30.874326248,628.0
30.900586813,711.0
30.926847378,722.0
30.953107943,664.0
30.979368508,627.0
31.005629073,612.0
31.031889638,656.0
31.058150203,648.0
31.084410768,658.0
31.110671333,700.0
31.136931898,666.0
31.163192463,672.0
31.189453028,715.0
31.215713593,660.0
31.241974158,627.0
31.268234723,660.0
31.294495288,621.0
31.320755853,688.0
31.347016418,687.0
31.373276983,606.0
31.399537548,613.0
31.425798113,632.0
31.452058678,641.0
31.478319243,695.0
31.504579808,633.0
31.530840373,654.0
31.557100938,658.0
31.583361503,674.0
31.609622068,651.0
31.635882633,628.0
31.662143198,639.0
31.688403763,621.0
31.714664328,647.0
31.740924893,672.0
31.767185458,675.0
31.793446023,655.0
31.819706588,627.0
31.845967153,643.0
31.872227718,653.0
31.898488283,677.0
31.924748848,652.0
31.951009413,677.0
31.977269978,679.0
32.003530543,632.0
32.029791108,700.0
32.056051673,629.0
32.082312238,688.0
32.108572803,638.0
32.134833368,653.0
32.161093933,650.0
32.187354498,623.0
32.213615063,642.0
32.239875628,610.0
32.266136193,577.0
32.292396758,662.0
32.318657323,613.0
32.344917888,602.0
32.371178453,590.0
32.397439018,627.0
32.423699583,591.0
32.449960148,632.0
32.476220713,607.0
32.502481278,598.0
32.528741843,595.0
32.555002408,592.0
32.581262973,607.0
32.607523538,607.0
32.633784103,588.0
32.660044668,571.0
32.686305233,614.0
32.712565798,546.0
32.738826363,565.0
32.765086928,588.0
32.791347493,570.0
32.817608058,625.0
32.843868623,618.0
32.870129188,586.0
32.896389753,616.0
32.922650318,584.0
32.948910883,567.0
32.975171448,602.0
33.001432013,553.0
33.027692578,599.0
33.053953143,588.0
33.080213708,605.0
33.106474273,582.0
33.132734838,604.0
33.158995403,554.0
33.185255968,577.0
33.211516533,573.0
33.237777098,547.0
33.264037663,541.0
33.290298228,573.0
33.316558793,570.0
33.342819358,560.0
33.369079923,596.0
33.395340488,574.0
33.421601053,526.0
33.447861618,579.0
33.474122183,557.0
33.500382748,529.0
33.526643313,530.0
33.552903878,532.0
33.579164443,568.0
33.605425008,575.0
33.631685573,585.0
33.657946138,509.0
33.684206703,516.0
33.710467268,575.0
33.736727833,564.0
33.762988398,570.0
33.789248963,524.0
33.815509528,577.0
33.841770093,550.0
33.868030658,577.0
33.894291223,525.0
33.920551789,506.0
33.946812354,543.0
33.973072919,546.0
33.999333484,543.0
34.025594049,566.0
34.051854614,560.0
34.078115179,607.0
34.104375744,566.0
34.130636309,560.0
34.156896874,480.0
34.183157439,546.0
34.209418004,505.0
34.235678569,568.0
34.261939134,535.0
34.288199699,543.0
34.314460264,544.0
34.340720829,532.0
34.366981394,580.0
34.393241959,552.0
34.419502524,535.0
34.445763089,539.0
34.472023654,553.0
34.498284219,570.0
34.524544784,542.0
34.550805349,525.0
34.577065914,556.0
34.603326479,570.0
34.629587044,549.0
34.655847609,515.0
34.682108174,548.0
34.708368739,520.0
34.734629304,512.0
34.760889869,557.0
34.787150434,570.0
34.813410999,571.0
34.839671564,542.0
34.865932129,546.0
34.892192694,467.0
34.918453259,571.0
34.944713824,528.0
34.970974389,505.0
34.997234954,497.0
35.023495519,556.0
35.049756084,485.0
35.076016649,519.0
35.102277214,532.0
35.128537779,502.0
35.154798344,501.0
35.181058909,514.0
35.207319474,546.0
35.233580039,477.0
35.259840604,542.0
35.286101169,483.0
35.312361734,527.0
35.338622299,524.0
35.364882864,533.0
35.391143429,523.0
35.417403994,517.0
35.443664559,479.0
35.469925124,516.0
35.496185689,478.0
35.522446254,536.0
35.548706819,521.0
35.574967384,512.0
35.601227949,509.0
35.627488514,538.0
35.653749079,545.0
35.680009644,499.0
35.706270209,541.0
35.732530774,533.0
35.758791339,506.0
35.785051904,521.0
35.811312469,537.0
35.837573034,499.0
35.863833599,509.0
35.890094164,552.0
35.916354729,523.0
35.942615294,499.0
35.968875859,517.0
35.995136424,535.0
36.021396989,511.0
36.047657554,528.0
36.073918119,512.0
36.100178684,498.0
36.126439249,522.0
36.152699814,440.0
36.178960379,465.0
36.205220944,491.0
36.231481509,497.0
36.257742074,531.0
36.284002639,462.0
36.310263204,463.0
36.336523769,523.0
36.362784334,503.0
36.389044899,486.0
36.415305464,452.0
36.441566029,493.0
36.467826594,511.0
36.494087159,470.0
36.520347724,510.0
36.546608289,514.0
36.572868854,485.0
36.599129419,481.0
36.625389984,534.0
36.651650549,523.0
36.677911114,503.0
36.704171679,453.0
36.730432244,506.0
36.756692809,523.0
36.782953374,516.0
36.809213939,505.0
36.835474504,450.0
36.861735069,511.0
36.887995634,534.0
36.914256199,523.0
36.940516764,525.0
36.966777329,501.0
36.993037894,479.0
37.019298459,475.0
37.045559024,460.0
37.071819589,459.0
37.098080154,491.0
37.124340719,471.0
37.150601284,501.0
37.176861849,512.0
37.203122414,475.0
37.229382979,420.0
37.255643544,461.0
37.281904109,450.0
37.308164674,485.0
37.334425240,473.0
37.360685805,514.0
37.386946370,488.0
37.413206935,506.0
37.439467500,467.0
37.465728065,496.0
37.491988630,492.0
37.518249195,469.0
37.544509760,497.0
37.570770325,501.0
37.597030890,472.0
37.623291455,472.0
37.649552020,515.0
37.675812585,471.0
37.702073150,486.0
37.728333715,465.0
37.754594280,461.0
37.780854845,513.0
37.807115410,471.0
37.833375975,490.0
37.859636540,477.0
37.885897105,478.0
37.912157670,450.0
37.938418235,482.0
37.964678800,479.0
37.990939365,481.0
38.017199930,533.0
38.043460495,505.0
38.069721060,500.0
38.095981625,475.0
38.122242190,471.0
38.148502755,473.0
38.174763320,465.0
38.201023885,537.0
38.227284450,463.0
38.253545015,471.0
38.279805580,511.0
38.306066145,483.0
38.332326710,444.0
38.358587275,427.0
38.384847840,482.0
38.411108405,473.0
38.437368970,496.0
38.463629535,487.0
38.489890100,491.0
38.516150665,474.0
38.542411230,476.0
38.568671795,497.0
38.594932360,495.0
38.621192925,513.0
38.647453490,466.0
38.673714055,502.0
38.699974620,483.0
38.726235185,539.0
38.752495750,497.0
38.778756315,500.0
38.805016880,470.0
38.831277445,456.0
38.857538010,483.0
38.883798575,502.0
38.910059140,519.0
38.936319705,522.0
38.962580270,519.0
38.988840835,503.0
39.015101400,527.0
39.041361965,461.0
39.067622530,495.0
39.093883095,542.0
39.120143660,490.0
39.146404225,532.0
39.172664790,503.0
39.198925355,523.0
39.225185920,473.0
39.251446485,498.0
39.277707050,497.0
39.303967615,520.0
39.330228180,542.0
39.356488745,528.0
39.382749310,543.0
39.409009875,519.0
39.435270440,496.0
39.461531005,541.0
39.487791570,506.0
39.514052135,528.0
39.540312700,540.0
39.566573265,477.0
39.592833830,567.0
39.619094395,570.0
39.645354960,550.0
39.671615525,533.0
39.697876090,534.0
39.724136655,536.0
39.750397220,528.0
39.776657785,561.0
39.802918350,554.0
39.829178915,571.0
39.855439480,554.0
39.881700045,584.0
39.907960610,600.0
39.934221175,578.0
39.960481740,605.0
39.986742305,612.0
40.013002870,607.0
40.039263435,624.0
40.065524000,615.0
40.091784565,611.0
40.118045130,664.0
40.144305695,669.0
40.170566260,661.0
40.196826825,655.0
40.223087390,665.0
40.249347955,681.0
40.275608520,652.0
40.301869085,678.0
40.328129650,669.0
40.354390215,671.0
40.380650780,744.0
40.406911345,747.0
40.433171910,747.0
40.459432475,752.0
40.485693040,729.0
40.511953605,655.0
40.538214170,668.0
40.564474735,644.0
40.590735300,704.0
40.616995865,722.0
40.643256430,758.0
40.669516995,711.0
40.695777560,704.0
40.722038126,718.0
40.748298691,693.0
40.774559256,664.0
40.800819821,661.0
40.827080386,661.0
40.853340951,702.0
40.879601516,768.0
40.905862081,688.0
40.932122646,692.0
40.958383211,696.0
40.984643776,743.0
41.010904341,689.0
41.037164906,691.0
41.063425471,723.0
41.089686036,710.0
41.115946601,693.0
41.142207166,697.0
41.168467731,660.0
41.194728296,699.0
41.220988861,684.0
41.247249426,643.0
41.273509991,677.0
41.299770556,657.0
41.326031121,710.0
41.352291686,688.0
41.378552251,691.0
41.404812816,714.0
41.431073381,712.0
41.457333946,687.0
41.483594511,655.0
41.509855076,662.0
41.536115641,667.0
41.562376206,660.0
41.588636771,641.0
41.614897336,664.0
41.641157901,726.0
41.667418466,650.0
41.693679031,638.0
41.719939596,648.0
41.746200161,677.0
41.772460726,654.0
41.798721291,643.0
41.824981856,664.0
41.851242421,651.0
41.877502986,649.0
41.903763551,679.0
41.930024116,630.0
41.956284681,668.0
41.982545246,665.0
42.008805811,660.0
42.035066376,651.0
42.061326941,693.0
42.087587506,640.0
42.113848071,639.0
42.140108636,711.0
42.166369201,634.0
42.192629766,590.0
42.218890331,635.0
42.245150896,612.0
42.271411461,614.0
42.297672026,647.0
42.323932591,624.0
42.350193156,598.0
42.376453721,601.0
42.402714286,621.0
42.428974851,622.0
42.455235416,599.0
42.481495981,575.0
42.507756546,564.0
42.534017111,640.0
42.560277676,571.0
42.586538241,618.0
42.612798806,649.0
42.639059371,570.0
42.665319936,643.0
42.691580501,612.0
42.717841066,573.0
42.744101631,565.0
42.770362196,633.0
42.796622761,630.0
42.822883326,589.0
42.849143891,618.0
42.875404456,581.0
42.901665021,627.0
42.927925586,583.0
42.954186151,601.0
42.980446716,549.0
43.006707281,560.0
43.032967846,563.0
43.059228411,577.0
43.085488976,553.0
43.111749541,597.0
43.138010106,545.0
43.164270671,530.0
43.190531236,534.0
43.216791801,575.0
43.243052366,522.0
43.269312931,526.0
43.295573496,518.0
43.321834061,599.0
43.348094626,563.0
43.374355191,543.0
43.400615756,566.0
43.426876321,544.0
43.453136886,542.0
43.479397451,540.0
43.505658016,506.0
43.531918581,531.0
43.558179146,520.0
43.584439711,541.0
43.610700276,508.0
43.636960841,559.0
43.663221406,547.0
43.689481971,563.0
43.715742536,501.0
43.742003101,500.0
43.768263666,526.0
43.794524231,505.0
43.820784796,488.0
43.847045361,517.0
43.873305926,530.0
43.899566491,528.0
43.925827056,524.0
43.952087621,503.0
43.978348186,520.0
44.004608751,474.0
44.030869316,516.0
44.057129881,479.0
44.083390446,472.0
44.109651011,549.0
44.135911577,473.0
44.162172142,523.0
44.188432707,492.0
44.214693272,478.0
44.240953837,486.0
44.267214402,526.0
44.293474967,508.0
44.319735532,461.0
44.345996097,477.0
44.372256662,509.0
44.398517227,479.0
44.424777792,503.0
44.451038357,479.0
44.477298922,476.0
44.503559487,484.0
44.529820052,433.0
44.556080617,491.0
44.582341182,448.0
44.608601747,449.0
44.634862312,451.0
44.661122877,487.0
44.687383442,497.0
44.713644007,552.0
44.739904572,465.0
44.766165137,497.0
44.792425702,504.0
44.818686267,447.0
44.844946832,475.0
44.871207397,467.0
44.897467962,412.0
44.923728527,463.0
44.949989092,444.0
44.976249657,446.0
45.002510222,465.0
45.028770787,468.0
45.055031352,431.0
45.081291917,449.0
45.107552482,419.0
45.133813047,450.0
45.160073612,446.0
45.186334177,450.0
45.212594742,400.0
45.238855307,465.0
45.265115872,473.0
45.291376437,451.0
45.317637002,459.0
45.343897567,471.0
45.370158132,494.0
45.396418697,436.0
45.422679262,421.0
45.448939827,458.0
45.475200392,476.0
45.501460957,449.0
45.527721522,418.0
45.553982087,440.0
45.580242652,453.0
45.606503217,423.0
45.632763782,438.0
45.659024347,417.0
45.685284912,434.0
45.711545477,447.0
45.737806042,429.0
45.764066607,438.0
45.790327172,414.0
45.816587737,431.0
45.842848302,407.0
45.869108867,422.0
45.895369432,433.0
45.921629997,493.0
45.947890562,434.0
45.974151127,418.0
46.000411692,459.0
46.026672257,446.0
46.052932822,404.0
46.079193387,431.0
46.105453952,399.0
46.131714517,462.0
46.157975082,403.0
46.184235647,471.0
46.210496212,423.0
46.236756777,428.0
46.263017342,426.0
46.289277907,412.0
46.315538472,432.0
46.341799037,413.0
46.368059602,406.0
46.394320167,417.0
46.420580732,420.0
46.446841297,432.0
46.473101862,374.0
46.499362427,429.0
46.525622992,366.0
46.551883557,417.0
46.578144122,408.0
46.604404687,433.0
46.630665252,377.0
46.656925817,377.0
46.683186382,402.0
46.709446947,403.0
46.735707512,391.0
46.761968077,412.0
46.788228642,428.0
46.814489207,409.0
46.840749772,425.0
46.867010337,388.0
46.893270902,343.0
46.919531467,392.0
46.945792032,390.0
46.972052597,348.0
46.998313162,418.0
47.024573727,375.0
47.050834292,403.0
47.077094857,400.0
47.103355422,405.0
47.129615987,390.0
47.155876552,381.0
47.182137117,440.0
47.208397682,418.0
47.234658247,393.0
47.260918812,388.0
47.287179377,405.0
47.313439942,389.0
47.339700507,407.0
47.365961072,357.0
47.392221637,375.0
47.418482202,394.0
47.444742767,402.0
47.471003332,379.0
47.497263897,389.0
47.523524463,376.0
47.549785028,402.0
47.576045593,388.0
47.602306158,357.0
47.628566723,377.0
47.654827288,351.0
47.681087853,357.0
47.707348418,402.0
47.733608983,377.0
47.759869548,375.0
47.786130113,362.0
47.812390678,371.0
47.838651243,369.0
47.864911808,383.0
47.891172373,364.0
47.917432938,359.0
47.943693503,384.0
47.969954068,356.0
47.996214633,396.0
48.022475198,357.0
48.048735763,360.0
48.074996328,361.0
48.101256893,404.0
48.127517458,342.0
48.153778023,315.0
48.180038588,396.0
48.206299153,329.0
48.232559718,365.0
48.258820283,367.0
48.285080848,383.0
48.311341413,366.0
48.337601978,318.0
48.363862543,342.0
48.390123108,389.0
48.416383673,354.0
48.442644238,361.0
48.468904803,383.0
48.495165368,393.0
48.521425933,340.0
48.547686498,351.0
48.573947063,369.0
48.600207628,335.0
48.626468193,327.0
48.652728758,328.0
48.678989323,351.0
48.705249888,338.0
48.731510453,324.0
48.757771018,342.0
48.784031583,329.0
48.810292148,342.0
48.836552713,313.0
48.862813278,327.0
48.889073843,347.0
48.915334408,353.0
48.941594973,354.0
48.967855538,366.0
48.994116103,350.0
49.020376668,320.0
49.046637233,344.0
49.072897798,352.0
49.099158363,338.0
49.125418928,318.0
49.151679493,313.0
49.177940058,366.0
49.204200623,344.0
49.230461188,338.0
49.256721753,319.0
49.282982318,350.0
49.309242883,355.0
49.335503448,301.0
49.361764013,344.0
49.388024578,345.0
49.414285143,312.0
49.440545708,335.0
49.466806273,318.0
49.493066838,327.0
49.519327403,339.0
49.545587968,312.0
49.571848533,320.0
49.598109098,348.0
49.624369663,325.0
49.650630228,319.0
49.676890793,316.0
49.703151358,318.0
49.729411923,349.0
49.755672488,324.0
49.781933053,308.0
49.808193618,324.0
49.834454183,325.0
49.860714748,310.0
49.886975313,334.0
49.913235878,349.0
49.939496443,337.0
49.965757008,261.0
49.992017573,348.0
50.018278138,311.0
50.044538703,311.0
50.070799268,338.0
50.097059833,357.0
50.123320398,301.0
50.149580963,313.0
50.175841528,328.0
50.202102093,326.0
50.228362658,326.0
50.254623223,314.0
50.280883788,311.0
50.307144353,325.0
50.333404918,352.0
50.359665483,308.0
50.385926048,320.0
50.412186613,316.0
50.438447178,329.0
50.464707743,332.0
50.490968308,308.0
50.517228873,336.0
50.543489438,325.0
50.569750003,322.0
50.596010568,321.0
50.622271133,309.0
50.648531698,302.0
50.674792263,344.0
50.701052828,296.0
50.727313393,304.0
50.753573958,326.0
50.779834523,316.0
50.806095088,346.0
50.832355653,284.0
50.858616218,354.0
50.884876783,325.0
50.911137349,283.0
50.937397914,317.0
50.963658479,299.0
50.989919044,311.0
51.016179609,316.0
51.042440174,332.0
51.068700739,306.0
51.094961304,301.0
51.121221869,330.0
51.147482434,323.0
51.173742999,306.0
51.200003564,283.0
51.226264129,326.0
51.252524694,339.0
51.278785259,311.0
51.305045824,319.0
51.331306389,331.0
51.357566954,324.0
51.383827519,320.0
51.410088084,337.0
51.436348649,304.0
51.462609214,295.0
51.488869779,297.0
51.515130344,319.0
51.541390909,286.0
51.567651474,337.0
51.593912039,325.0
51.620172604,331.0
51.646433169,328.0
51.672693734,317.0
51.698954299,288.0
51.725214864,314.0
51.751475429,289.0
51.777735994,310.0
51.803996559,312.0
51.830257124,282.0
51.856517689,329.0
51.882778254,275.0
51.909038819,329.0
51.935299384,325.0
51.961559949,319.0
51.987820514,300.0
52.014081079,325.0
52.040341644,332.0
52.066602209,315.0
52.092862774,308.0
52.119123339,293.0
52.145383904,270.0
52.171644469,271.0
52.197905034,308.0
52.224165599,306.0
52.250426164,272.0
52.276686729,310.0
52.302947294,291.0
52.329207859,330.0
52.355468424,313.0
52.381728989,277.0
52.407989554,284.0
52.434250119,299.0
52.460510684,287.0
52.486771249,319.0
52.513031814,294.0
52.539292379,323.0
52.565552944,306.0
52.591813509,298.0
52.618074074,301.0
52.644334639,313.0
52.670595204,274.0
52.696855769,313.0
52.723116334,297.0
52.749376899,275.0
52.775637464,277.0
52.801898029,295.0
52.828158594,276.0
52.854419159,281.0
52.880679724,296.0
52.906940289,311.0
52.933200854,277.0
52.959461419,276.0
52.985721984,315.0
53.011982549,298.0
53.038243114,269.0
53.064503679,308.0
53.090764244,345.0
53.117024809,298.0
53.143285374,300.0
53.169545939,305.0
53.195806504,303.0
53.222067069,289.0
53.248327634,314.0
53.274588199,299.0
53.300848764,294.0
53.327109329,305.0
53.353369894,292.0
53.379630459,293.0
53.405891024,306.0
53.432151589,298.0
53.458412154,317.0
53.484672719,288.0
53.510933284,268.0
53.537193849,287.0
53.563454414,297.0
53.589714979,332.0
53.615975544,319.0
53.642236109,296.0
53.668496674,273.0
53.694757239,286.0
53.721017804,312.0
53.747278369,279.0
53.773538934,265.0
53.799799499,301.0
53.826060064,301.0
53.852320629,285.0
53.878581194,295.0
53.904841759,276.0
53.931102324,276.0
53.957362889,288.0
53.983623454,289.0
54.009884019,288.0
54.036144584,312.0
54.062405149,286.0
54.088665714,309.0
54.114926279,289.0
54.141186844,318.0
54.167447409,262.0
54.193707974,321.0
54.219968539,273.0
54.246229104,279.0
54.272489669,314.0
54.298750234,300.0
54.325010800,263.0
54.351271365,301.0
54.377531930,279.0
54.403792495,290.0
54.430053060,282.0
54.456313625,304.0
54.482574190,301.0
54.508834755,284.0
54.535095320,280.0
54.561355885,300.0
54.587616450,279.0
54.613877015,292.0
54.640137580,322.0
54.666398145,322.0
54.692658710,293.0
54.718919275,281.0
54.745179840,268.0
54.771440405,302.0
54.797700970,314.0
54.823961535,285.0
54.850222100,273.0
54.876482665,267.0
54.902743230,273.0
54.929003795,272.0
54.955264360,285.0
54.981524925,303.0
55.007785490,326.0
55.034046055,269.0
55.060306620,287.0
55.086567185,298.0
55.112827750,292.0
55.139088315,266.0
55.165348880,308.0
55.191609445,255.0
55.217870010,280.0
55.244130575,265.0
55.270391140,304.0
55.296651705,285.0
55.322912270,311.0
55.349172835,285.0
55.375433400,296.0
55.401693965,287.0
55.427954530,288.0
55.454215095,304.0
55.480475660,318.0
55.506736225,286.0
55.532996790,312.0
55.559257355,295.0
55.585517920,306.0
55.611778485,272.0
55.638039050,249.0
55.664299615,289.0
55.690560180,295.0
55.716820745,303.0
55.743081310,291.0
55.769341875,289.0
55.795602440,311.0
55.821863005,306.0
55.848123570,335.0
55.874384135,246.0
55.900644700,284.0
55.926905265,273.0
55.953165830,288.0
55.979426395,302.0
56.005686960,297.0
56.031947525,259.0
56.058208090,310.0
56.084468655,313.0
56.110729220,278.0
56.136989785,273.0
56.163250350,334.0
56.189510915,300.0
56.215771480,319.0
56.242032045,265.0
56.268292610,258.0
56.294553175,295.0
56.320813740,282.0
56.347074305,289.0
56.373334870,274.0
56.399595435,323.0
56.425856000,294.0
56.452116565,286.0
56.478377130,274.0
56.504637695,256.0
56.530898260,285.0
56.557158825,315.0
56.583419390,282.0
56.609679955,270.0
56.635940520,268.0
56.662201085,265.0
56.688461650,262.0
56.714722215,276.0
56.740982780,308.0
56.767243345,242.0
56.793503910,280.0
56.819764475,295.0
56.846025040,304.0
56.872285605,246.0
56.898546170,286.0
56.924806735,289.0
56.951067300,313.0
56.977327865,283.0
57.003588430,279.0
57.029848995,280.0
57.056109560,287.0
57.082370125,282.0
57.108630690,276.0
57.134891255,281.0
57.161151820,298.0
57.187412385,266.0
57.213672950,271.0
57.239933515,304.0
57.266194080,287.0
57.292454645,312.0
57.318715210,278.0
57.344975775,337.0
57.371236340,302.0
57.397496905,263.0
57.423757470,276.0
57.450018035,290.0
57.476278600,280.0
57.502539165,283.0
57.528799730,297.0
57.555060295,308.0
57.581320860,302.0
57.607581425,308.0
57.633841990,263.0
57.660102555,299.0
57.686363120,318.0
57.712623686,278.0
57.738884251,263.0
57.765144816,305.0
57.791405381,283.0
57.817665946,285.0
57.843926511,280.0
57.870187076,258.0
57.896447641,273.0
57.922708206,282.0
57.948968771,289.0
57.975229336,263.0
58.001489901,274.0
58.027750466,251.0
58.054011031,301.0
58.080271596,298.0
58.106532161,300.0
58.132792726,276.0
58.159053291,247.0
58.185313856,303.0
58.211574421,293.0
58.237834986,294.0
58.264095551,257.0
58.290356116,264.0
58.316616681,295.0
58.342877246,258.0
58.369137811,293.0
58.395398376,263.0
58.421658941,269.0
58.447919506,301.0
58.474180071,297.0
58.500440636,274.0
58.526701201,275.0
58.552961766,300.0
58.579222331,299.0
58.605482896,298.0
58.631743461,270.0
58.658004026,262.0
58.684264591,254.0
58.710525156,271.0
58.736785721,294.0
58.763046286,272.0
58.789306851,251.0
58.815567416,275.0
58.841827981,285.0
58.868088546,287.0
58.894349111,263.0
58.920609676,301.0
58.946870241,263.0
58.973130806,282.0
58.999391371,265.0
59.025651936,280.0
59.051912501,296.0
59.078173066,256.0
59.104433631,286.0
59.130694196,255.0
59.156954761,248.0
59.183215326,258.0
59.209475891,306.0
59.235736456,261.0
59.261997021,293.0
59.288257586,292.0
59.314518151,279.0
59.340778716,291.0
59.367039281,265.0
59.393299846,273.0
59.419560411,282.0
59.445820976,249.0
59.472081541,290.0
59.498342106,285.0
59.524602671,282.0
59.550863236,273.0
59.577123801,297.0
59.603384366,266.0
59.629644931,256.0
59.655905496,288.0
59.682166061,248.0
59.708426626,284.0
59.734687191,313.0
59.760947756,280.0
59.787208321,282.0
59.813468886,267.0
59.839729451,283.0
59.865990016,270.0
59.892250581,287.0
59.918511146,280.0
59.944771711,258.0
59.971032276,264.0
59.997292841,266.0
60.023553406,266.0
60.049813971,268.0
60.076074536,286.0
60.102335101,283.0
60.128595666,277.0
60.154856231,245.0
60.181116796,274.0
60.207377361,259.0
60.233637926,264.0
60.259898491,257.0
60.286159056,268.0
60.312419621,246.0
60.338680186,276.0
60.364940751,269.0
60.391201316,273.0
60.417461881,271.0
60.443722446,283.0
60.469983011,282.0
60.496243576,270.0
60.522504141,257.0
60.548764706,246.0
60.575025271,281.0
60.601285836,282.0
60.627546401,272.0
60.653806966,266.0
60.680067531,300.0
60.706328096,279.0
60.732588661,279.0
60.758849226,278.0
60.785109791,290.0
60.811370356,288.0
60.837630921,266.0
60.863891486,287.0
60.890152051,258.0
60.916412616,264.0
60.942673181,266.0
60.968933746,276.0
60.995194311,244.0
61.021454876,269.0
61.047715441,248.0
61.073976006,296.0
61.100236571,272.0
61.126497137,273.0
61.152757702,261.0
61.179018267,281.0
61.205278832,273.0
61.231539397,268.0
61.257799962,263.0
61.284060527,272.0
61.310321092,256.0
61.336581657,289.0
61.362842222,263.0
61.389102787,272.0
61.415363352,290.0
61.441623917,246.0
61.467884482,299.0
61.494145047,281.0
61.520405612,271.0
61.546666177,283.0
61.572926742,277.0
61.599187307,294.0
61.625447872,242.0
61.651708437,286.0
61.677969002,256.0
61.704229567,250.0
61.730490132,273.0
61.756750697,265.0
61.783011262,273.0
61.809271827,281.0
61.835532392,268.0
61.861792957,233.0
61.888053522,273.0
61.914314087,288.0
61.940574652,252.0
61.966835217,280.0
61.993095782,263.0
62.019356347,286.0
62.045616912,276.0
62.071877477,272.0
62.098138042,250.0
62.124398607,242.0
62.150659172,274.0
62.176919737,254.0
62.203180302,255.0
62.229440867,288.0
62.255701432,257.0
62.281961997,253.0
62.308222562,274.0
62.334483127,255.0
62.360743692,251.0
62.387004257,257.0
62.413264822,270.0
62.439525387,273.0
62.465785952,297.0
62.492046517,262.0
62.518307082,290.0
62.544567647,286.0
62.570828212,276.0
62.597088777,276.0
62.623349342,271.0
62.649609907,288.0
62.675870472,256.0
62.702131037,238.0
62.728391602,257.0
62.754652167,268.0
62.780912732,263.0
62.807173297,245.0
62.833433862,268.0
62.859694427,258.0
62.885954992,272.0
62.912215557,276.0
62.938476122,228.0
62.964736687,270.0
62.990997252,295.0
63.017257817,276.0
63.043518382,300.0
63.069778947,263.0
63.096039512,262.0
63.122300077,262.0
63.148560642,241.0
63.174821207,260.0
63.201081772,251.0
63.227342337,260.0
63.253602902,261.0
63.279863467,277.0
63.306124032,269.0
63.332384597,266.0
63.358645162,257.0
63.384905727,287.0
63.411166292,261.0
63.437426857,262.0
63.463687422,275.0
63.489947987,302.0
63.516208552,280.0
63.542469117,239.0
63.568729682,242.0
63.594990247,282.0
63.621250812,239.0
63.647511377,246.0
63.673771942,238.0
63.700032507,267.0
63.726293072,249.0
63.752553637,267.0
63.778814202,249.0
63.805074767,245.0
63.831335332,263.0
63.857595897,263.0
63.883856462,277.0
63.910117027,304.0
63.936377592,263.0
63.962638157,257.0
63.988898722,278.0
64.015159287,255.0
64.041419852,282.0
64.067680417,270.0
64.093940982,278.0
64.120201547,258.0
64.146462112,266.0
64.172722677,257.0
64.198983242,257.0
64.225243807,253.0
64.251504372,254.0
64.277764937,270.0
64.304025502,250.0
64.330286067,280.0
64.356546632,270.0
64.382807197,264.0
64.409067762,261.0
64.435328327,281.0
64.461588892,251.0
64.487849457,251.0
64.514110023,270.0
64.540370588,249.0
64.566631153,254.0
64.592891718,265.0
64.619152283,277.0
64.645412848,244.0
64.671673413,260.0
64.697933978,249.0
64.724194543,260.0
64.750455108,273.0
64.776715673,256.0
64.802976238,263.0
64.829236803,258.0
64.855497368,245.0
64.881757933,256.0
64.908018498,257.0
64.934279063,239.0
64.960539628,257.0
64.986800193,277.0
65.013060758,289.0
65.039321323,247.0
65.065581888,266.0
65.091842453,305.0
65.118103018,273.0
65.144363583,246.0
65.170624148,254.0
65.196884713,269.0
65.223145278,283.0
65.249405843,247.0
65.275666408,232.0
65.301926973,257.0
65.328187538,230.0
65.354448103,247.0
65.380708668,270.0
65.406969233,271.0
65.433229798,245.0
65.459490363,253.0
65.485750928,236.0
65.512011493,260.0
65.538272058,261.0
65.564532623,250.0
65.590793188,256.0
65.617053753,238.0
65.643314318,249.0
65.669574883,233.0
65.695835448,259.0
65.722096013,260.0
65.748356578,245.0
65.774617143,249.0
65.800877708,249.0
65.827138273,268.0
65.853398838,245.0
65.879659403,211.0
65.905919968,248.0
65.932180533,260.0
65.958441098,269.0
65.984701663,221.0
66.010962228,257.0
66.037222793,269.0
66.063483358,238.0
66.089743923,249.0
66.116004488,263.0
66.142265053,239.0
66.168525618,280.0
66.194786183,265.0
66.221046748,239.0
66.247307313,247.0
66.273567878,256.0
66.299828443,240.0
66.326089008,229.0
66.352349573,271.0
66.378610138,251.0
66.404870703,260.0
66.431131268,248.0
66.457391833,244.0
66.483652398,250.0
66.509912963,259.0
66.536173528,248.0
66.562434093,255.0
66.588694658,249.0
66.614955223,254.0
66.641215788,261.0
66.667476353,274.0
66.693736918,229.0
66.719997483,255.0
66.746258048,213.0
66.772518613,242.0
66.798779178,234.0
66.825039743,252.0
66.851300308,254.0
66.877560873,254.0
66.903821438,243.0
66.930082003,243.0
66.956342568,235.0
66.982603133,220.0
67.008863698,241.0
67.035124263,262.0
67.061384828,236.0
67.087645393,247.0
67.113905958,220.0
67.140166523,276.0
67.166427088,263.0
67.192687653,242.0
67.218948218,223.0
67.245208783,204.0
67.271469348,236.0
67.297729913,225.0
67.323990478,260.0
67.350251043,248.0
67.376511608,236.0
67.402772173,254.0
67.429032738,252.0
67.455293303,238.0
67.481553868,261.0
67.507814433,243.0
67.534074998,252.0
67.560335563,256.0
67.586596128,240.0
67.612856693,233.0
67.639117258,224.0
67.665377823,242.0
67.691638388,214.0
67.717898953,248.0
67.744159518,234.0
67.770420083,201.0
67.796680648,242.0
67.822941213,248.0
67.849201778,274.0
67.875462343,226.0
67.901722909,244.0
67.927983474,235.0
67.954244039,263.0
67.980504604,235.0
68.006765169,237.0
68.033025734,246.0
68.059286299,227.0
68.085546864,197.0
68.111807429,211.0
68.138067994,262.0
68.164328559,229.0
68.190589124,242.0
68.216849689,247.0
68.243110254,251.0
68.269370819,241.0
68.295631384,245.0
68.321891949,240.0
68.348152514,231.0
68.374413079,207.0
68.400673644,243.0
68.426934209,253.0
68.453194774,254.0
68.479455339,245.0
68.505715904,218.0
68.531976469,236.0
68.558237034,226.0
68.584497599,210.0
68.610758164,231.0
68.637018729,239.0
68.663279294,232.0
68.689539859,244.0
68.715800424,238.0
68.742060989,217.0
68.768321554,264.0
68.794582119,223.0
68.820842684,237.0
68.847103249,230.0
68.873363814,249.0
68.899624379,228.0
68.925884944,241.0
68.952145509,214.0
68.978406074,258.0
69.004666639,221.0
69.030927204,225.0
69.057187769,227.0
69.083448334,213.0
69.109708899,249.0
69.135969464,215.0
69.162230029,223.0
69.188490594,204.0
69.214751159,219.0
69.241011724,239.0
69.267272289,229.0
69.293532854,234.0
69.319793419,239.0
69.346053984,235.0
69.372314549,251.0
69.398575114,236.0
69.424835679,262.0
69.451096244,217.0
69.477356809,216.0
69.503617374,215.0
69.529877939,218.0
69.556138504,229.0
69.582399069,224.0
69.608659634,233.0
69.634920199,210.0
69.661180764,207.0
69.687441329,224.0
69.713701894,234.0
69.739962459,219.0
69.766223024,212.0
69.792483589,247.0
69.818744154,225.0
69.845004719,212.0
69.871265284,224.0
69.897525849,240.0
69.923786414,245.0
69.950046979,230.0
69.976307544,229.0
70.002568109,231.0
70.028828674,209.0
70.055089239,215.0
70.081349804,258.0
70.107610369,237.0
70.133870934,243.0
70.160131499,218.0
70.186392064,212.0
70.212652629,230.0
70.238913194,247.0
70.265173759,249.0
70.291434324,243.0
70.317694889,261.0
70.343955454,228.0
70.370216019,210.0
70.396476584,210.0
70.422737149,239.0
70.448997714,231.0
70.475258279,219.0
70.501518844,233.0
70.527779409,226.0
70.554039974,224.0
70.580300539,200.0
70.606561104,231.0
70.632821669,238.0
70.659082234,228.0
70.685342799,242.0
70.711603364,235.0
70.737863929,231.0
70.764124494,219.0
70.790385059,226.0
70.816645624,227.0
70.842906189,232.0
70.869166754,222.0
70.895427319,226.0
70.921687884,221.0
70.947948449,241.0
70.974209014,210.0
71.000469579,200.0
71.026730144,205.0
71.052990709,217.0
71.079251274,241.0
71.105511839,224.0
71.131772404,234.0
71.158032969,250.0
71.184293534,218.0
71.210554099,240.0
71.236814664,217.0
71.263075229,269.0
71.289335794,210.0
71.315596360,228.0
71.341856925,219.0
71.368117490,202.0
71.394378055,218.0
71.420638620,251.0
71.446899185,196.0
71.473159750,204.0
71.499420315,247.0
71.525680880,252.0
71.551941445,242.0
71.578202010,236.0
71.604462575,197.0
71.630723140,216.0
71.656983705,229.0
71.683244270,210.0
71.709504835,220.0
71.735765400,221.0
71.762025965,226.0
71.788286530,231.0
71.814547095,225.0
71.840807660,216.0
71.867068225,235.0
71.893328790,242.0
71.919589355,229.0
71.945849920,206.0
71.972110485,236.0
71.998371050,235.0
72.024631615,230.0
72.050892180,235.0
72.077152745,226.0
72.103413310,239.0
72.129673875,249.0
72.155934440,241.0
72.182195005,215.0
72.208455570,242.0
72.234716135,233.0
72.260976700,217.0
72.287237265,239.0
72.313497830,230.0
72.339758395,228.0
72.366018960,248.0
72.392279525,218.0
72.418540090,229.0
72.444800655,248.0
72.471061220,239.0
72.497321785,234.0
72.523582350,236.0
72.549842915,251.0
72.576103480,224.0
72.602364045,227.0
72.628624610,228.0
72.654885175,210.0
72.681145740,186.0
72.707406305,215.0
72.733666870,237.0
72.759927435,255.0
72.786188000,234.0
72.812448565,241.0
72.838709130,232.0
72.864969695,230.0
72.891230260,255.0
72.917490825,245.0
72.943751390,230.0
72.970011955,237.0
72.996272520,245.0
73.022533085,255.0
73.048793650,245.0
73.075054215,230.0
73.101314780,256.0
73.127575345,231.0
73.153835910,258.0
73.180096475,256.0
73.206357040,217.0
73.232617605,252.0
73.258878170,239.0
73.285138735,229.0
73.311399300,261.0
73.337659865,256.0
73.363920430,229.0
73.390180995,241.0
73.416441560,246.0
73.442702125,239.0
73.468962690,243.0
73.495223255,257.0
73.521483820,233.0
73.547744385,225.0
73.574004950,222.0
73.600265515,228.0
73.626526080,209.0
73.652786645,242.0
73.679047210,246.0
73.705307775,225.0
73.731568340,224.0
73.757828905,216.0
73.784089470,250.0
73.810350035,240.0
73.836610600,208.0
73.862871165,244.0
73.889131730,218.0
73.915392295,266.0
73.941652860,226.0
73.967913425,232.0
73.994173990,225.0
74.020434555,242.0
74.046695120,256.0
74.072955685,238.0
74.099216250,238.0
74.125476815,235.0
74.151737380,273.0
74.177997945,252.0
74.204258510,222.0
74.230519075,210.0
74.256779640,211.0
74.283040205,233.0
74.309300770,208.0
74.335561335,239.0
74.361821900,240.0
74.388082465,255.0
74.414343030,235.0
74.440603595,222.0
74.466864160,196.0
74.493124725,179.0
74.519385290,212.0
74.545645855,233.0
74.571906420,239.0
74.598166985,202.0
74.624427550,206.0
74.650688115,240.0
74.676948680,247.0
74.703209246,195.0
74.729469811,209.0
74.755730376,229.0
74.781990941,220.0
74.808251506,237.0
74.834512071,217.0
74.860772636,200.0
74.887033201,237.0
74.913293766,225.0
74.939554331,214.0
74.965814896,211.0
74.992075461,192.0
75.018336026,220.0
75.044596591,224.0
75.070857156,215.0
75.097117721,212.0
75.123378286,234.0
75.149638851,208.0
75.175899416,207.0
75.202159981,208.0
75.228420546,218.0
75.254681111,209.0
75.280941676,223.0
75.307202241,211.0
75.333462806,205.0
75.359723371,230.0
75.385983936,203.0
75.412244501,216.0
75.438505066,212.0
75.464765631,220.0
75.491026196,215.0
75.517286761,217.0
75.543547326,192.0
75.569807891,203.0
75.596068456,190.0
75.622329021,221.0
75.648589586,232.0
75.674850151,215.0
75.701110716,211.0
75.727371281,223.0
75.753631846,263.0
75.779892411,211.0
75.806152976,183.0
75.832413541,203.0
75.858674106,194.0
75.884934671,224.0
75.911195236,200.0
75.937455801,207.0
75.963716366,211.0
75.989976931,226.0
76.016237496,203.0
76.042498061,205.0
76.068758626,199.0
76.095019191,225.0
76.121279756,228.0
76.147540321,197.0
76.173800886,216.0
76.200061451,222.0
76.226322016,211.0
76.252582581,214.0
76.278843146,210.0
76.305103711,183.0
76.331364276,212.0
76.357624841,192.0
76.383885406,237.0
76.410145971,225.0
76.436406536,235.0
76.462667101,221.0
76.488927666,192.0
76.515188231,183.0
76.541448796,203.0
76.567709361,196.0
76.593969926,206.0
76.620230491,226.0
76.646491056,200.0
76.672751621,203.0
76.699012186,172.0
76.725272751,216.0
76.751533316,209.0
76.777793881,214.0
76.804054446,210.0
76.830315011,228.0
76.856575576,196.0
76.882836141,194.0
76.909096706,207.0
76.935357271,198.0
76.961617836,211.0
76.987878401,195.0
77.014138966,186.0
77.040399531,193.0
77.066660096,223.0
77.092920661,213.0
77.119181226,199.0
77.145441791,219.0
77.171702356,198.0
77.197962921,224.0
77.224223486,196.0
77.250484051,224.0
77.276744616,196.0
77.303005181,172.0
77.329265746,189.0
77.355526311,214.0
77.381786876,191.0
77.408047441,185.0
77.434308006,197.0
77.460568571,206.0
77.486829136,194.0
77.513089701,188.0
77.539350266,192.0
77.565610831,196.0
77.591871396,220.0
77.618131961,199.0
77.644392526,175.0
77.670653091,200.0
77.696913656,214.0
77.723174221,214.0
77.749434786,218.0
77.775695351,215.0
77.801955916,199.0
77.828216481,202.0
77.854477046,222.0
77.880737611,197.0
77.906998176,223.0
77.933258741,191.0
77.959519306,186.0
77.985779871,203.0
78.012040436,220.0
78.038301001,189.0
78.064561566,187.0
78.090822131,211.0
78.117082697,215.0
78.143343262,190.0
78.169603827,186.0
78.195864392,192.0
78.222124957,193.0
78.248385522,227.0
78.274646087,168.0
78.300906652,203.0
78.327167217,185.0
78.353427782,194.0
78.379688347,186.0
78.405948912,196.0
78.432209477,205.0
78.458470042,196.0
78.484730607,177.0
78.510991172,199.0
78.537251737,208.0
78.563512302,189.0
78.589772867,177.0
78.616033432,212.0
78.642293997,171.0
78.668554562,210.0
78.694815127,210.0
78.721075692,192.0
78.747336257,216.0
78.773596822,220.0
78.799857387,193.0
78.826117952,207.0
78.852378517,210.0
78.878639082,209.0
78.904899647,201.0
78.931160212,195.0
78.957420777,206.0
78.983681342,204.0
79.009941907,196.0
79.036202472,196.0
79.062463037,209.0
79.088723602,194.0
79.114984167,211.0
79.141244732,197.0
79.167505297,180.0
79.193765862,223.0
79.220026427,211.0
79.246286992,182.0
79.272547557,199.0
79.298808122,202.0
79.325068687,203.0
79.351329252,196.0
79.377589817,194.0
79.403850382,187.0
79.430110947,197.0
79.456371512,177.0
79.482632077,194.0
79.508892642,197.0
79.535153207,173.0
79.561413772,219.0
79.587674337,207.0
79.613934902,195.0
79.640195467,198.0
79.666456032,192.0
79.692716597,201.0
79.718977162,204.0
79.745237727,194.0
79.771498292,223.0
79.797758857,196.0
79.824019422,202.0
79.850279987,189.0
79.876540552,211.0
79.902801117,193.0
79.929061682,188.0
79.955322247,195.0
79.981582812,169.0
80.007843377,176.0
80.034103942,236.0
80.060364507,213.0
80.086625072,217.0
80.112885637,176.0
80.139146202,189.0
80.165406767,194.0
80.191667332,169.0
80.217927897,191.0
80.244188462,211.0
80.270449027,195.0
80.296709592,182.0
80.322970157,188.0
80.349230722,176.0
80.375491287,160.0
80.401751852,212.0
80.428012417,197.0
80.454272982,194.0
80.480533547,204.0
80.506794112,202.0
80.533054677,201.0
80.559315242,194.0
80.585575807,207.0
80.611836372,184.0
80.638096937,200.0
80.664357502,184.0
80.690618067,208.0
80.716878632,174.0
80.743139197,215.0
80.769399762,182.0
80.795660327,187.0
80.821920892,173.0
80.848181457,199.0
80.874442022,174.0
80.900702587,205.0
80.926963152,184.0
80.953223717,175.0
80.979484282,185.0
81.005744847,193.0
81.032005412,210.0
81.058265977,215.0
81.084526542,227.0
81.110787107,163.0
81.137047672,183.0
81.163308237,178.0
81.189568802,179.0
81.215829367,181.0
81.242089932,198.0
81.268350497,188.0
81.294611062,175.0
81.320871627,182.0
81.347132192,185.0
81.373392757,213.0
81.399653322,197.0
81.425913887,200.0
81.452174452,200.0
81.478435017,176.0
81.504695583,165.0
81.530956148,178.0
81.557216713,185.0
81.583477278,213.0
81.609737843,184.0
81.635998408,155.0
81.662258973,181.0
81.688519538,198.0
81.714780103,167.0
81.741040668,180.0
81.767301233,201.0
81.793561798,198.0
81.819822363,210.0
81.846082928,205.0
81.872343493,171.0
81.898604058,162.0
81.924864623,193.0
81.951125188,188.0
81.977385753,187.0
82.003646318,175.0
82.029906883,176.0
82.056167448,191.0
82.082428013,183.0
82.108688578,191.0
82.134949143,208.0
82.161209708,181.0
82.187470273,200.0
82.213730838,210.0
82.239991403,196.0
82.266251968,179.0
82.292512533,191.0
82.318773098,189.0
82.345033663,170.0
82.371294228,177.0
82.397554793,171.0
82.423815358,200.0
82.450075923,201.0
82.476336488,180.0
82.502597053,182.0
82.528857618,205.0
82.555118183,146.0
82.581378748,157.0
82.607639313,171.0
82.633899878,189.0
82.660160443,190.0
82.686421008,198.0
82.712681573,173.0
82.738942138,189.0
82.765202703,168.0
82.791463268,174.0
82.817723833,186.0
82.843984398,175.0
82.870244963,191.0
82.896505528,174.0
82.922766093,205.0
82.949026658,183.0
82.975287223,187.0
83.001547788,189.0
83.027808353,181.0
83.054068918,177.0
83.080329483,190.0
83.106590048,169.0
83.132850613,199.0
83.159111178,222.0
83.185371743,176.0
83.211632308,207.0
83.237892873,174.0
83.264153438,193.0
83.290414003,189.0
83.316674568,179.0
83.342935133,181.0
83.369195698,160.0
83.395456263,156.0
83.421716828,184.0
83.447977393,163.0
83.474237958,181.0
83.500498523,167.0
83.526759088,175.0
83.553019653,161.0
83.579280218,183.0
83.605540783,196.0
83.631801348,203.0
83.658061913,191.0
83.684322478,153.0
83.710583043,178.0
83.736843608,164.0
83.763104173,188.0
83.789364738,179.0
83.815625303,177.0
83.841885868,181.0
83.868146433,184.0
83.894406998,174.0
83.920667563,152.0
83.946928128,164.0
83.973188693,171.0
83.999449258,191.0
84.025709823,165.0
84.051970388,167.0
84.078230953,187.0
84.104491518,170.0
84.130752083,167.0
84.157012648,173.0
84.183273213,183.0
84.209533778,163.0
84.235794343,181.0
84.262054908,162.0
84.288315473,195.0
84.314576038,172.0
84.340836603,172.0
84.367097168,167.0
84.393357733,201.0
84.419618298,151.0
84.445878863,182.0
84.472139428,167.0
84.498399993,160.0
84.524660558,176.0
84.550921123,185.0
84.577181688,190.0
84.603442253,170.0
84.629702818,192.0
84.655963383,193.0
84.682223948,171.0
84.708484513,159.0
84.734745078,160.0
84.761005643,187.0
84.787266208,177.0
84.813526773,160.0
84.839787338,198.0
84.866047903,178.0
84.892308469,170.0
84.918569034,203.0
84.944829599,176.0
84.971090164,170.0
84.997350729,182.0
85.023611294,197.0
85.049871859,148.0
85.076132424,185.0
85.102392989,165.0
85.128653554,172.0
85.154914119,153.0
85.181174684,175.0
85.207435249,175.0
85.233695814,192.0
85.259956379,153.0
85.286216944,171.0
85.312477509,164.0
85.338738074,186.0
85.364998639,184.0
85.391259204,170.0
85.417519769,157.0
85.443780334,166.0
85.470040899,147.0
85.496301464,158.0
85.522562029,191.0
85.548822594,177.0
85.575083159,166.0
85.601343724,175.0
85.627604289,162.0
85.653864854,174.0
85.680125419,183.0
85.706385984,168.0
85.732646549,192.0
85.758907114,153.0
85.785167679,153.0
85.811428244,188.0
85.837688809,167.0
85.863949374,199.0
85.890209939,145.0
85.916470504,156.0
85.942731069,167.0
85.968991634,195.0
85.995252199,168.0
86.021512764,178.0
86.047773329,170.0
86.074033894,174.0
86.100294459,140.0
86.126555024,213.0
86.152815589,203.0
86.179076154,178.0
86.205336719,156.0
86.231597284,163.0
86.257857849,170.0
86.284118414,175.0
86.310378979,167.0
86.336639544,188.0
86.362900109,171.0
86.389160674,184.0
86.415421239,165.0
86.441681804,174.0
86.467942369,159.0
86.494202934,200.0
86.520463499,177.0
86.546724064,159.0
86.572984629,148.0
86.599245194,179.0
86.625505759,160.0
86.651766324,173.0
86.678026889,170.0
86.704287454,181.0
86.730548019,163.0
86.756808584,160.0
86.783069149,165.0
86.809329714,159.0
86.835590279,164.0
86.861850844,196.0
86.888111409,157.0
86.914371974,155.0
86.940632539,171.0
86.966893104,191.0
86.993153669,176.0
87.019414234,193.0
87.045674799,177.0
87.071935364,175.0
87.098195929,171.0
87.124456494,197.0
87.150717059,163.0
87.176977624,192.0
87.203238189,171.0
87.229498754,180.0
87.255759319,166.0
87.282019884,167.0
87.308280449,141.0
87.334541014,179.0
87.360801579,181.0
87.387062144,178.0
87.413322709,171.0
87.439583274,155.0
87.465843839,186.0
87.492104404,174.0
87.518364969,176.0
87.544625534,176.0
87.570886099,160.0
87.597146664,169.0
87.623407229,159.0
87.649667794,179.0
87.675928359,139.0
87.702188924,202.0
87.728449489,163.0
87.754710054,149.0
87.780970619,177.0
87.807231184,160.0
87.833491749,181.0
87.859752314,147.0
87.886012879,187.0
87.912273444,150.0
87.938534009,179.0
87.964794574,197.0
87.991055139,180.0
88.017315704,168.0
88.043576269,165.0
88.069836834,195.0
88.096097399,171.0
88.122357964,183.0
88.148618529,167.0
88.174879094,152.0
88.201139659,160.0
88.227400224,182.0
88.253660789,184.0
88.279921354,189.0
88.306181920,185.0
88.332442485,173.0
88.358703050,169.0
88.384963615,185.0
88.411224180,169.0
88.437484745,166.0
88.463745310,182.0
88.490005875,175.0
88.516266440,190.0
88.542527005,168.0
88.568787570,166.0
88.595048135,158.0
88.621308700,181.0
88.647569265,171.0
88.673829830,158.0
88.700090395,152.0
88.726350960,176.0
88.752611525,185.0
88.778872090,179.0
88.805132655,167.0
88.831393220,193.0
88.857653785,163.0
88.883914350,172.0
88.910174915,158.0
88.936435480,187.0
88.962696045,167.0
88.988956610,171.0
89.015217175,166.0
89.041477740,153.0
89.067738305,174.0
89.093998870,190.0
89.120259435,176.0
89.146520000,146.0
89.172780565,162.0
89.199041130,172.0
89.225301695,162.0
89.251562260,152.0
89.277822825,163.0
89.304083390,175.0
89.330343955,162.0
89.356604520,164.0
89.382865085,139.0
89.409125650,183.0
89.435386215,151.0
89.461646780,173.0
89.487907345,190.0
89.514167910,163.0
89.540428475,167.0
89.566689040,171.0
89.592949605,177.0
89.619210170,169.0
89.645470735,154.0
89.671731300,169.0
89.697991865,150.0
89.724252430,153.0
89.750512995,188.0
89.776773560,211.0
89.803034125,161.0
89.829294690,168.0
89.855555255,161.0
89.881815820,164.0
89.908076385,154.0
89.934336950,178.0
89.960597515,169.0
89.986858080,137.0
