[Measurement conditions]
Sample identification,
Comment - 1,"Configuration=Stage for flat samples/holders, Owner=User-1, Creation date=3/27/2015 11:56:23 AM"
Comment - 2,"Goniometer=Theta/Theta; Minimum step size 2Theta:0.0001; Minimum step size Omega:0.0001"
Comment - 3,"Sample stage=Stage for flat samples/holders"
Comment - 4,"Diffractometer system=EMPYREAN"
Comment - 5,"Measurement program=C:\PANalytical\Data Collector\Programs\Powder - Copy.xrdmp, Identifier={BEEA10DD-8FD6-4721-8940-4FBC5A4262A1}"
Comment - 6,"Fine Calibration Offset for 2Theta = -0.0130 deg"
Comment - 7,"Fine Calibration Offset for Omega = -0.0070 deg"
Anode material,Cu
K-Alpha1 wavelength,1.5405980
K-Alpha2 wavelength,1.5444260
Ratio K-Alpha2/K-Alpha1,0.500
Divergence slit,Fixed,0.38mm
Monochromator used,NO
Generator voltage, 40
Tube current, 35
File date and time,24/Jul/2017 16:52
Unit cell,
h k l, 0 0 0
Scan axis,Gonio
Scan range,5.020799997,89.999988363
Scan step size,0.0262606
No. of points, 3236
Scan type,CONTINUOUS
Time per step,18.615
[Scan points]
Angle,Intensity
5.033930280,1818.0
5.060190845,1896.0
5.086451410,1802.0
5.112711975,1779.0
5.138972540,1850.0
5.165233105,1784.0
5.191493670,1753.0
5.217754235,1801.0
5.244014800,1865.0
5.270275365,1842.0
5.296535930,1865.0
5.322796495,1790.0
5.349057060,1801.0
5.375317625,1828.0
5.401578190,1836.0
5.427838755,1740.0
5.454099320,1815.0
5.480359885,1699.0
5.506620450,1718.0
5.532881015,1732.0
5.559141580,1843.0
5.585402145,1770.0
5.611662710,1702.0
5.637923275,1803.0
5.664183840,1881.0
5.690444405,1713.0
5.716704970,1751.0
5.742965535,1783.0
5.769226100,1775.0
5.795486665,1774.0
5.821747230,1803.0
5.848007795,1738.0
5.874268360,1730.0
5.900528925,1700.0
5.926789490,1724.0
5.953050055,1646.0
5.979310620,1711.0
6.005571185,1697.0
6.031831750,1638.0
6.058092315,1669.0
6.084352880,1814.0
6.110613445,1716.0
6.136874010,1689.0
6.163134575,1699.0
6.189395140,1612.0
6.215655705,1652.0
6.241916270,1670.0
6.268176835,1678.0
6.294437400,1708.0
6.320697965,1663.0
6.346958530,1692.0
6.373219095,1664.0
6.399479660,1669.0
6.425740225,1599.0
6.452000790,1550.0
6.478261355,1618.0
6.504521920,1650.0
6.530782485,1605.0
6.557043050,1654.0
6.583303615,1616.0
6.609564180,1607.0
6.635824745,1600.0
6.662085310,1569.0
6.688345875,1626.0
6.714606440,1554.0
6.740867006,1530.0
6.767127571,1622.0
6.793388136,1664.0
6.819648701,1671.0
6.845909266,1603.0
6.872169831,1581.0
6.898430396,1545.0
6.924690961,1584.0
6.950951526,1620.0
6.977212091,1506.0
7.003472656,1683.0
7.029733221,1586.0
7.055993786,1533.0
7.082254351,1562.0
7.108514916,1609.0
7.134775481,1477.0
7.161036046,1601.0
7.187296611,1594.0
7.213557176,1547.0
7.239817741,1508.0
7.266078306,1559.0
7.292338871,1536.0
7.318599436,1505.0
7.344860001,1599.0
7.371120566,1551.0
7.397381131,1568.0
7.423641696,1485.0
7.449902261,1438.0
7.476162826,1446.0
7.502423391,1496.0
7.528683956,1524.0
7.554944521,1530.0
7.581205086,1501.0
7.607465651,1573.0
7.633726216,1422.0
7.659986781,1453.0
7.686247346,1465.0
7.712507911,1453.0
7.738768476,1483.0
7.765029041,1412.0
7.791289606,1370.0
7.817550171,1441.0
7.843810736,1482.0
7.870071301,1400.0
7.896331866,1449.0
7.922592431,1438.0
7.948852996,1455.0
7.975113561,1371.0
8.001374126,1379.0
8.027634691,1357.0
8.053895256,1455.0
8.080155821,1445.0
8.106416386,1452.0
8.132676951,1496.0
8.158937516,1433.0
8.185198081,1415.0
8.211458646,1358.0
8.237719211,1435.0
8.263979776,1362.0
8.290240341,1397.0
8.316500906,1413.0
8.342761471,1400.0
8.369022036,1341.0
8.395282601,1414.0
8.421543166,1305.0
8.447803731,1433.0
8.474064296,1372.0
8.500324861,1361.0
8.526585426,1423.0
8.552845991,1306.0
8.579106556,1429.0
8.605367121,1395.0
8.631627686,1456.0
8.657888251,1388.0
8.684148816,1393.0
8.710409381,1405.0
8.736669946,1227.0
8.762930511,1329.0
8.789191076,1328.0
8.815451641,1376.0
8.841712206,1421.0
8.867972771,1354.0
8.894233336,1339.0
8.920493901,1360.0
8.946754466,1311.0
8.973015031,1356.0
8.999275596,1360.0
9.025536161,1310.0
9.051796726,1363.0
9.078057291,1284.0
9.104317856,1335.0
9.130578421,1300.0
9.156838986,1321.0
9.183099551,1304.0
9.209360116,1318.0
9.235620681,1365.0
9.261881246,1381.0
9.288141811,1366.0
9.314402376,1311.0
9.340662941,1328.0
9.366923506,1376.0
9.393184071,1333.0
9.419444636,1297.0
9.445705201,1316.0
9.471965766,1361.0
9.498226331,1304.0
9.524486896,1255.0
9.550747461,1334.0
9.577008026,1300.0
9.603268591,1352.0
9.629529156,1314.0
9.655789721,1310.0
9.682050286,1336.0
9.708310851,1297.0
9.734571416,1248.0
9.760831981,1232.0
9.787092546,1249.0
9.813353111,1326.0
9.839613676,1245.0
9.865874241,1296.0
9.892134806,1280.0
9.918395371,1269.0
9.944655936,1251.0
9.970916501,1299.0
9.997177066,1268.0
10.023437631,1230.0
10.049698196,1266.0
10.075958761,1260.0
10.102219326,1241.0
10.128479891,1269.0
10.154740457,1261.0
10.181001022,1300.0
10.207261587,1258.0
10.233522152,1193.0
10.259782717,1282.0
10.286043282,1273.0
10.312303847,1274.0
10.338564412,1238.0
10.364824977,1295.0
10.391085542,1295.0
10.417346107,1314.0
10.443606672,1218.0
10.469867237,1305.0
10.496127802,1239.0
10.522388367,1186.0
10.548648932,1265.0
10.574909497,1262.0
10.601170062,1256.0
10.627430627,1290.0
10.653691192,1227.0
10.679951757,1195.0
10.706212322,1178.0
10.732472887,1278.0
10.758733452,1242.0
10.784994017,1180.0
10.811254582,1213.0
10.837515147,1171.0
10.863775712,1246.0
10.890036277,1157.0
10.916296842,1186.0
10.942557407,1223.0
10.968817972,1276.0
10.995078537,1200.0
11.021339102,1212.0
11.047599667,1193.0
11.073860232,1215.0
11.100120797,1190.0
11.126381362,1248.0
11.152641927,1242.0
11.178902492,1168.0
11.205163057,1203.0
11.231423622,1279.0
11.257684187,1226.0
11.283944752,1185.0
11.310205317,1209.0
11.336465882,1200.0
11.362726447,1192.0
11.388987012,1212.0
11.415247577,1200.0
11.441508142,1195.0
11.467768707,1215.0
11.494029272,1196.0
11.520289837,1117.0
11.546550402,1245.0
11.572810967,1207.0
11.599071532,1254.0
11.625332097,1244.0
11.651592662,1254.0
11.677853227,1284.0
11.704113792,1216.0
11.730374357,1126.0
11.756634922,1170.0
11.782895487,1166.0
11.809156052,1175.0
11.835416617,1249.0
11.861677182,1228.0
11.887937747,1191.0
11.914198312,1204.0
11.940458877,1136.0
11.966719442,1207.0
11.992980007,1276.0
12.019240572,1244.0
12.045501137,1251.0
12.071761702,1250.0
12.098022267,1257.0
12.124282832,1204.0
12.150543397,1201.0
12.176803962,1142.0
12.203064527,1186.0
12.229325092,1176.0
12.255585657,1198.0
12.281846222,1161.0
12.308106787,1174.0
12.334367352,1188.0
12.360627917,1222.0
12.386888482,1192.0
12.413149047,1208.0
12.439409612,1231.0
12.465670177,1210.0
12.491930742,1233.0
12.518191307,1182.0
12.544451872,1198.0
12.570712437,1218.0
12.596973002,1236.0
12.623233567,1237.0
12.649494132,1251.0
12.675754697,1241.0
12.702015262,1218.0
12.728275827,1233.0
12.754536392,1247.0
12.780796957,1289.0
12.807057522,1222.0
12.833318087,1174.0
12.859578652,1249.0
12.885839217,1237.0
12.912099782,1269.0
12.938360347,1242.0
12.964620912,1276.0
12.990881477,1250.0
13.017142042,1305.0
13.043402607,1249.0
13.069663172,1265.0
13.095923737,1259.0
13.122184302,1180.0
13.148444867,1316.0
13.174705432,1259.0
13.200965997,1277.0
13.227226562,1255.0
13.253487127,1231.0
13.279747692,1266.0
13.306008257,1224.0
13.332268822,1262.0
13.358529387,1227.0
13.384789952,1326.0
13.411050517,1356.0
13.437311082,1260.0
13.463571647,1255.0
13.489832212,1261.0
13.516092777,1236.0
13.542353343,1338.0
13.568613908,1303.0
13.594874473,1250.0
13.621135038,1272.0
13.647395603,1262.0
13.673656168,1270.0
13.699916733,1309.0
13.726177298,1289.0
13.752437863,1344.0
13.778698428,1251.0
13.804958993,1271.0
13.831219558,1327.0
13.857480123,1326.0
13.883740688,1268.0
13.910001253,1328.0
13.936261818,1261.0
13.962522383,1334.0
13.988782948,1383.0
14.015043513,1294.0
14.041304078,1356.0
14.067564643,1281.0
14.093825208,1352.0
14.120085773,1263.0
14.146346338,1270.0
14.172606903,1311.0
14.198867468,1257.0
14.225128033,1341.0
14.251388598,1338.0
14.277649163,1333.0
14.303909728,1329.0
14.330170293,1271.0
14.356430858,1279.0
14.382691423,1301.0
14.408951988,1300.0
14.435212553,1343.0
14.461473118,1365.0
14.487733683,1334.0
14.513994248,1355.0
14.540254813,1309.0
14.566515378,1375.0
14.592775943,1319.0
14.619036508,1289.0
14.645297073,1345.0
14.671557638,1349.0
14.697818203,1325.0
14.724078768,1367.0
14.750339333,1318.0
14.776599898,1348.0
14.802860463,1318.0
14.829121028,1413.0
14.855381593,1267.0
14.881642158,1305.0
14.907902723,1317.0
14.934163288,1333.0
14.960423853,1248.0
14.986684418,1230.0
15.012944983,1266.0
15.039205548,1247.0
15.065466113,1218.0
15.091726678,1237.0
15.117987243,1280.0
15.144247808,1250.0
15.170508373,1203.0
15.196768938,1184.0
15.223029503,1244.0
15.249290068,1201.0
15.275550633,1101.0
15.301811198,1213.0
15.328071763,1135.0
15.354332328,1186.0
15.380592893,1063.0
15.406853458,1104.0
15.433114023,1080.0
15.459374588,1044.0
15.485635153,994.0
15.511895718,986.0
15.538156283,964.0
15.564416848,1017.0
15.590677413,1003.0
15.616937978,971.0
15.643198543,880.0
15.669459108,978.0
15.695719673,909.0
15.721980238,862.0
15.748240803,905.0
15.774501368,838.0
15.800761933,808.0
15.827022498,906.0
15.853283063,885.0
15.879543628,847.0
15.905804193,822.0
15.932064758,844.0
15.958325323,754.0
15.984585888,786.0
16.010846453,784.0
16.037107018,798.0
16.063367583,801.0
16.089628148,821.0
16.115888713,781.0
16.142149278,753.0
16.168409843,715.0
16.194670408,737.0
16.220930973,742.0
16.247191538,699.0
16.273452103,735.0
16.299712668,714.0
16.325973233,679.0
16.352233798,714.0
16.378494363,706.0
16.404754928,692.0
16.431015493,706.0
16.457276058,650.0
16.483536623,628.0
16.509797188,673.0
16.536057753,712.0
16.562318318,648.0
16.588578883,676.0
16.614839448,604.0
16.641100013,667.0
16.667360578,644.0
16.693621143,670.0
16.719881708,612.0
16.746142273,607.0
16.772402838,598.0
16.798663403,611.0
16.824923968,642.0
16.851184533,645.0
16.877445098,613.0
16.903705663,650.0
16.929966229,625.0
16.956226794,559.0
16.982487359,580.0
17.008747924,641.0
17.035008489,584.0
17.061269054,534.0
17.087529619,568.0
17.113790184,577.0
17.140050749,551.0
17.166311314,591.0
17.192571879,556.0
17.218832444,581.0
17.245093009,571.0
17.271353574,541.0
17.297614139,554.0
17.323874704,543.0
17.350135269,561.0
17.376395834,600.0
17.402656399,516.0
17.428916964,564.0
17.455177529,509.0
17.481438094,535.0
17.507698659,531.0
17.533959224,549.0
17.560219789,545.0
17.586480354,532.0
17.612740919,522.0
17.639001484,578.0
17.665262049,503.0
17.691522614,535.0
17.717783179,560.0
17.744043744,517.0
17.770304309,520.0
17.796564874,537.0
17.822825439,547.0
17.849086004,546.0
17.875346569,561.0
17.901607134,548.0
17.927867699,542.0
17.954128264,494.0
17.980388829,483.0
18.006649394,514.0
18.032909959,528.0
18.059170524,537.0
18.085431089,543.0
18.111691654,488.0
18.137952219,493.0
18.164212784,492.0
18.190473349,518.0
18.216733914,473.0
18.242994479,467.0
18.269255044,548.0
18.295515609,542.0
18.321776174,517.0
18.348036739,520.0
18.374297304,517.0
18.400557869,493.0
18.426818434,504.0
18.453078999,503.0
18.479339564,458.0
18.505600129,513.0
18.531860694,466.0
18.558121259,482.0
18.584381824,496.0
18.610642389,508.0
18.636902954,506.0
18.663163519,495.0
18.689424084,421.0
18.715684649,482.0
18.741945214,519.0
18.768205779,501.0
18.794466344,511.0
18.820726909,496.0
18.846987474,480.0
18.873248039,524.0
18.899508604,468.0
18.925769169,461.0
18.952029734,476.0
18.978290299,440.0
19.004550864,459.0
19.030811429,445.0
19.057071994,453.0
19.083332559,460.0
19.109593124,476.0
19.135853689,466.0
19.162114254,484.0
19.188374819,445.0
19.214635384,487.0
19.240895949,463.0
19.267156514,451.0
19.293417079,473.0
19.319677644,455.0
19.345938209,485.0
19.372198774,473.0
19.398459339,444.0
19.424719904,476.0
19.450980469,456.0
19.477241034,449.0
19.503501599,418.0
19.529762164,481.0
19.556022729,452.0
19.582283294,488.0
19.608543859,412.0
19.634804424,479.0
19.661064989,465.0
19.687325554,467.0
19.713586119,470.0
19.739846684,464.0
19.766107249,454.0
19.792367814,462.0
19.818628379,437.0
19.844888944,425.0
19.871149509,479.0
19.897410074,460.0
19.923670639,434.0
19.949931204,452.0
19.976191769,476.0
20.002452334,464.0
20.028712899,437.0
20.054973464,416.0
20.081234029,464.0
20.107494594,441.0
20.133755159,411.0
20.160015724,454.0
20.186276289,434.0
20.212536854,443.0
20.238797419,436.0
20.265057984,461.0
20.291318549,462.0
20.317579114,448.0
20.343839680,458.0
20.370100245,432.0
20.396360810,447.0
20.422621375,426.0
20.448881940,436.0
20.475142505,446.0
20.501403070,423.0
20.527663635,418.0
20.553924200,453.0
20.580184765,499.0
20.606445330,476.0
20.632705895,423.0
20.658966460,448.0
20.685227025,412.0
20.711487590,433.0
20.737748155,412.0
20.764008720,402.0
20.790269285,393.0
20.816529850,416.0
20.842790415,486.0
20.869050980,401.0
20.895311545,455.0
20.921572110,437.0
20.947832675,464.0
20.974093240,457.0
21.000353805,421.0
21.026614370,426.0
21.052874935,428.0
21.079135500,418.0
21.105396065,424.0
21.131656630,441.0
21.157917195,421.0
21.184177760,457.0
21.210438325,415.0
21.236698890,409.0
21.262959455,415.0
21.289220020,444.0
21.315480585,443.0
21.341741150,431.0
21.368001715,439.0
21.394262280,476.0
21.420522845,438.0
21.446783410,440.0
21.473043975,441.0
21.499304540,431.0
21.525565105,452.0
21.551825670,470.0
21.578086235,411.0
21.604346800,424.0
21.630607365,441.0
21.656867930,389.0
21.683128495,445.0
21.709389060,429.0
21.735649625,451.0
21.761910190,440.0
21.788170755,428.0
21.814431320,425.0
21.840691885,418.0
21.866952450,401.0
21.893213015,429.0
21.919473580,437.0
21.945734145,446.0
21.971994710,441.0
21.998255275,451.0
22.024515840,429.0
22.050776405,431.0
22.077036970,430.0
22.103297535,448.0
22.129558100,447.0
22.155818665,439.0
22.182079230,440.0
22.208339795,420.0
22.234600360,398.0
22.260860925,452.0
22.287121490,417.0
22.313382055,452.0
22.339642620,423.0
22.365903185,432.0
22.392163750,406.0
22.418424315,456.0
22.444684880,417.0
22.470945445,471.0
22.497206010,457.0
22.523466575,431.0
22.549727140,420.0
22.575987705,475.0
22.602248270,416.0
22.628508835,439.0
22.654769400,451.0
22.681029965,469.0
22.707290530,421.0
22.733551095,452.0
22.759811660,423.0
22.786072225,437.0
22.812332790,443.0
22.838593355,391.0
22.864853920,446.0
22.891114485,405.0
22.917375050,475.0
22.943635615,431.0
22.969896180,460.0
22.996156745,441.0
23.022417310,461.0
23.048677875,418.0
23.074938440,444.0
23.101199005,435.0
23.127459570,399.0
23.153720135,487.0
23.179980700,452.0
23.206241265,451.0
23.232501830,505.0
23.258762395,426.0
23.285022960,440.0
23.311283525,475.0
23.337544090,478.0
23.363804655,443.0
23.390065220,423.0
23.416325785,445.0
23.442586350,429.0
23.468846915,421.0
23.495107480,510.0
23.521368045,422.0
23.547628610,453.0
23.573889175,444.0
23.600149740,394.0
23.626410305,444.0
23.652670870,437.0
23.678931435,438.0
23.705192000,459.0
23.731452566,375.0
23.757713131,492.0
23.783973696,437.0
23.810234261,439.0
23.836494826,465.0
23.862755391,414.0
23.889015956,439.0
23.915276521,479.0
23.941537086,432.0
23.967797651,505.0
23.994058216,502.0
24.020318781,460.0
24.046579346,470.0
24.072839911,422.0
24.099100476,476.0
24.125361041,435.0
24.151621606,445.0
24.177882171,442.0
24.204142736,455.0
24.230403301,419.0
24.256663866,478.0
24.282924431,493.0
24.309184996,451.0
24.335445561,455.0
24.361706126,448.0
24.387966691,483.0
24.414227256,481.0
24.440487821,435.0
24.466748386,420.0
24.493008951,392.0
24.519269516,420.0
24.545530081,485.0
24.571790646,444.0
24.598051211,389.0
24.624311776,408.0
24.650572341,469.0
24.676832906,476.0
24.703093471,454.0
24.729354036,492.0
24.755614601,449.0
24.781875166,419.0
24.808135731,442.0
24.834396296,454.0
24.860656861,500.0
24.886917426,477.0
24.913177991,451.0
24.939438556,444.0
24.965699121,474.0
24.991959686,481.0
25.018220251,440.0
25.044480816,462.0
25.070741381,472.0
25.097001946,469.0
25.123262511,471.0
25.149523076,459.0
25.175783641,450.0
25.202044206,450.0
25.228304771,453.0
25.254565336,500.0
25.280825901,458.0
25.307086466,441.0
25.333347031,428.0
25.359607596,477.0
25.385868161,450.0
25.412128726,418.0
25.438389291,458.0
25.464649856,458.0
25.490910421,510.0
25.517170986,420.0
25.543431551,466.0
25.569692116,492.0
25.595952681,439.0
25.622213246,429.0
25.648473811,464.0
25.674734376,506.0
25.700994941,475.0
25.727255506,494.0
25.753516071,464.0
25.779776636,453.0
25.806037201,468.0
25.832297766,454.0
25.858558331,495.0
25.884818896,456.0
25.911079461,462.0
25.937340026,444.0
25.963600591,443.0
25.989861156,464.0
26.016121721,483.0
26.042382286,492.0
26.068642851,448.0
26.094903416,457.0
26.121163981,488.0
26.147424546,517.0
26.173685111,476.0
26.199945676,474.0
26.226206241,473.0
26.252466806,453.0
26.278727371,465.0
26.304987936,468.0
26.331248501,465.0
26.357509066,478.0
26.383769631,447.0
26.410030196,463.0
26.436290761,513.0
26.462551326,484.0
26.488811891,489.0
26.515072456,472.0
26.541333021,526.0
26.567593586,518.0
26.593854151,463.0
26.620114716,457.0
26.646375281,460.0
26.672635846,442.0
26.698896411,468.0
26.725156976,455.0
26.751417541,510.0
26.777678106,476.0
26.803938671,478.0
26.830199236,457.0
26.856459801,451.0
26.882720366,510.0
26.908980931,477.0
26.935241496,473.0
26.961502061,476.0
26.987762626,487.0
27.014023191,478.0
27.040283756,505.0
27.066544321,468.0
27.092804886,506.0
27.119065451,494.0
27.145326017,516.0
27.171586582,480.0
27.197847147,485.0
27.224107712,482.0
27.250368277,476.0
27.276628842,478.0
27.302889407,431.0
27.329149972,483.0
27.355410537,496.0
27.381671102,484.0
27.407931667,487.0
27.434192232,475.0
27.460452797,525.0
27.486713362,468.0
27.512973927,482.0
27.539234492,500.0
27.565495057,521.0
27.591755622,488.0
27.618016187,497.0
27.644276752,501.0
27.670537317,500.0
27.696797882,460.0
27.723058447,510.0
27.749319012,480.0
27.775579577,512.0
27.801840142,497.0
27.828100707,490.0
27.854361272,489.0
27.880621837,516.0
27.906882402,485.0
27.933142967,496.0
27.959403532,525.0
27.985664097,542.0
28.011924662,522.0
28.038185227,535.0
28.064445792,530.0
28.090706357,512.0
28.116966922,518.0
28.143227487,465.0
28.169488052,502.0
28.195748617,507.0
28.222009182,454.0
28.248269747,466.0
28.274530312,513.0
28.300790877,541.0
28.327051442,446.0
28.353312007,524.0
28.379572572,488.0
28.405833137,515.0
28.432093702,529.0
28.458354267,492.0
28.484614832,529.0
28.510875397,490.0
28.537135962,506.0
28.563396527,493.0
28.589657092,487.0
28.615917657,475.0
28.642178222,472.0
28.668438787,467.0
28.694699352,516.0
28.720959917,451.0
28.747220482,538.0
28.773481047,535.0
28.799741612,508.0
28.826002177,524.0
28.852262742,509.0
28.878523307,489.0
28.904783872,544.0
28.931044437,473.0
28.957305002,552.0
28.983565567,486.0
29.009826132,469.0
29.036086697,524.0
29.062347262,531.0
29.088607827,552.0
29.114868392,507.0
29.141128957,539.0
29.167389522,511.0
29.193650087,546.0
29.219910652,480.0
29.246171217,506.0
29.272431782,509.0
29.298692347,551.0
29.324952912,515.0
29.351213477,531.0
29.377474042,499.0
29.403734607,501.0
29.429995172,482.0
29.456255737,559.0
29.482516302,512.0
29.508776867,513.0
29.535037432,542.0
29.561297997,505.0
29.587558562,542.0
29.613819127,561.0
29.640079692,489.0
29.666340257,533.0
29.692600822,528.0
29.718861387,488.0
29.745121952,520.0
29.771382517,523.0
29.797643082,521.0
29.823903647,558.0
29.850164212,496.0
29.876424777,561.0
29.902685342,504.0
29.928945907,480.0
29.955206472,492.0
29.981467037,531.0
30.007727602,455.0
30.033988167,535.0
30.060248732,487.0
30.086509297,529.0
30.112769862,529.0
30.139030427,475.0
30.165290992,532.0
30.191551557,563.0
30.217812122,498.0
30.244072687,501.0
30.270333252,531.0
30.296593817,497.0
30.322854382,544.0
30.349114947,503.0
30.375375512,498.0
30.401636077,485.0
30.427896642,474.0
30.454157207,489.0
30.480417772,503.0
30.506678337,511.0
30.532938903,497.0
30.559199468,517.0
30.585460033,537.0
30.611720598,496.0
30.637981163,499.0
30.664241728,500.0
30.690502293,491.0
30.716762858,544.0
30.743023423,488.0
30.769283988,537.0
30.795544553,476.0
30.821805118,527.0
30.848065683,509.0
30.874326248,464.0
30.900586813,527.0
30.926847378,507.0
30.953107943,552.0
30.979368508,453.0
31.005629073,506.0
31.031889638,501.0
31.058150203,508.0
31.084410768,513.0
31.110671333,544.0
31.136931898,529.0
31.163192463,484.0
31.189453028,538.0
31.215713593,468.0
31.241974158,522.0
31.268234723,476.0
31.294495288,502.0
31.320755853,445.0
31.347016418,485.0
31.373276983,477.0
31.399537548,474.0
31.425798113,478.0
31.452058678,451.0
31.478319243,459.0
31.504579808,470.0
31.530840373,471.0
31.557100938,483.0
31.583361503,444.0
31.609622068,516.0
31.635882633,446.0
31.662143198,475.0
31.688403763,473.0
31.714664328,469.0
31.740924893,486.0
31.767185458,491.0
31.793446023,479.0
31.819706588,465.0
31.845967153,522.0
31.872227718,482.0
31.898488283,452.0
31.924748848,494.0
31.951009413,486.0
31.977269978,461.0
32.003530543,465.0
32.029791108,471.0
32.056051673,476.0
32.082312238,443.0
32.108572803,475.0
32.134833368,476.0
32.161093933,471.0
32.187354498,466.0
32.213615063,457.0
32.239875628,479.0
32.266136193,463.0
32.292396758,472.0
32.318657323,415.0
32.344917888,453.0
32.371178453,507.0
32.397439018,450.0
32.423699583,482.0
32.449960148,444.0
32.476220713,425.0
32.502481278,476.0
32.528741843,447.0
32.555002408,452.0
32.581262973,419.0
32.607523538,459.0
32.633784103,453.0
32.660044668,487.0
32.686305233,503.0
32.712565798,474.0
32.738826363,466.0
32.765086928,463.0
32.791347493,381.0
32.817608058,450.0
32.843868623,491.0
32.870129188,453.0
32.896389753,437.0
32.922650318,447.0
32.948910883,467.0
32.975171448,467.0
33.001432013,465.0
33.027692578,476.0
33.053953143,498.0
33.080213708,448.0
33.106474273,435.0
33.132734838,492.0
33.158995403,482.0
33.185255968,450.0
33.211516533,442.0
33.237777098,480.0
33.264037663,473.0
33.290298228,451.0
33.316558793,455.0
33.342819358,441.0
33.369079923,496.0
33.395340488,448.0
33.421601053,439.0
33.447861618,467.0
33.474122183,420.0
33.500382748,436.0
33.526643313,490.0
33.552903878,444.0
33.579164443,467.0
33.605425008,446.0
33.631685573,434.0
33.657946138,418.0
33.684206703,486.0
33.710467268,437.0
33.736727833,449.0
33.762988398,467.0
33.789248963,471.0
33.815509528,456.0
33.841770093,444.0
33.868030658,446.0
33.894291223,444.0
33.920551789,441.0
33.946812354,436.0
33.973072919,466.0
33.999333484,464.0
34.025594049,434.0
34.051854614,487.0
34.078115179,479.0
34.104375744,511.0
34.130636309,453.0
34.156896874,441.0
34.183157439,446.0
34.209418004,444.0
34.235678569,416.0
34.261939134,426.0
34.288199699,425.0
34.314460264,460.0
34.340720829,458.0
34.366981394,455.0
34.393241959,467.0
34.419502524,475.0
34.445763089,449.0
34.472023654,456.0
34.498284219,474.0
34.524544784,440.0
34.550805349,472.0
34.577065914,478.0
34.603326479,435.0
34.629587044,462.0
34.655847609,477.0
34.682108174,423.0
34.708368739,438.0
34.734629304,441.0
34.760889869,431.0
34.787150434,467.0
34.813410999,463.0
34.839671564,479.0
34.865932129,462.0
34.892192694,500.0
34.918453259,467.0
34.944713824,472.0
34.970974389,489.0
34.997234954,462.0
35.023495519,486.0
35.049756084,468.0
35.076016649,483.0
35.102277214,469.0
35.128537779,467.0
35.154798344,482.0
35.181058909,463.0
35.207319474,429.0
35.233580039,527.0
35.259840604,468.0
35.286101169,462.0
35.312361734,501.0
35.338622299,420.0
35.364882864,466.0
35.391143429,529.0
35.417403994,471.0
35.443664559,518.0
35.469925124,487.0
35.496185689,493.0
35.522446254,447.0
35.548706819,452.0
35.574967384,489.0
35.601227949,487.0
35.627488514,473.0
35.653749079,432.0
35.680009644,486.0
35.706270209,441.0
35.732530774,450.0
35.758791339,452.0
35.785051904,432.0
35.811312469,457.0
35.837573034,463.0
35.863833599,446.0
35.890094164,452.0
35.916354729,495.0
35.942615294,471.0
35.968875859,456.0
35.995136424,536.0
36.021396989,496.0
36.047657554,468.0
36.073918119,466.0
36.100178684,466.0
36.126439249,485.0
36.152699814,491.0
36.178960379,476.0
36.205220944,487.0
36.231481509,483.0
36.257742074,459.0
36.284002639,497.0
36.310263204,468.0
36.336523769,482.0
36.362784334,489.0
36.389044899,494.0
36.415305464,500.0
36.441566029,473.0
36.467826594,469.0
36.494087159,497.0
36.520347724,466.0
36.546608289,462.0
36.572868854,468.0
36.599129419,509.0
36.625389984,530.0
36.651650549,465.0
36.677911114,501.0
36.704171679,475.0
36.730432244,534.0
36.756692809,511.0
36.782953374,496.0
36.809213939,516.0
36.835474504,486.0
36.861735069,483.0
36.887995634,518.0
36.914256199,494.0
36.940516764,480.0
36.966777329,495.0
36.993037894,488.0
37.019298459,494.0
37.045559024,509.0
37.071819589,481.0
37.098080154,510.0
37.124340719,530.0
37.150601284,515.0
37.176861849,502.0
37.203122414,495.0
37.229382979,520.0
37.255643544,483.0
37.281904109,538.0
37.308164674,494.0
37.334425240,530.0
37.360685805,531.0
37.386946370,491.0
37.413206935,555.0
37.439467500,534.0
37.465728065,514.0
37.491988630,558.0
37.518249195,560.0
37.544509760,528.0
37.570770325,515.0
37.597030890,507.0
37.623291455,505.0
37.649552020,531.0
37.675812585,519.0
37.702073150,531.0
37.728333715,556.0
37.754594280,536.0
37.780854845,524.0
37.807115410,511.0
37.833375975,527.0
37.859636540,516.0
37.885897105,515.0
37.912157670,570.0
37.938418235,576.0
37.964678800,560.0
37.990939365,557.0
38.017199930,549.0
38.043460495,502.0
38.069721060,550.0
38.095981625,556.0
38.122242190,504.0
38.148502755,566.0
38.174763320,554.0
38.201023885,537.0
38.227284450,559.0
38.253545015,550.0
38.279805580,547.0
38.306066145,520.0
38.332326710,550.0
38.358587275,534.0
38.384847840,585.0
38.411108405,599.0
38.437368970,596.0
38.463629535,541.0
38.489890100,585.0
38.516150665,547.0
38.542411230,538.0
38.568671795,637.0
38.594932360,607.0
38.621192925,602.0
38.647453490,579.0
38.673714055,590.0
38.699974620,618.0
38.726235185,646.0
38.752495750,662.0
38.778756315,614.0
38.805016880,652.0
38.831277445,632.0
38.857538010,640.0
38.883798575,601.0
38.910059140,714.0
38.936319705,630.0
38.962580270,662.0
38.988840835,680.0
39.015101400,648.0
39.041361965,681.0
39.067622530,648.0
39.093883095,643.0
39.120143660,659.0
39.146404225,670.0
39.172664790,718.0
39.198925355,692.0
39.225185920,649.0
39.251446485,694.0
39.277707050,693.0
39.303967615,724.0
39.330228180,708.0
39.356488745,740.0
39.382749310,711.0
39.409009875,719.0
39.435270440,760.0
39.461531005,708.0
39.487791570,777.0
39.514052135,718.0
39.540312700,752.0
39.566573265,826.0
39.592833830,825.0
39.619094395,846.0
39.645354960,817.0
39.671615525,853.0
39.697876090,821.0
39.724136655,847.0
39.750397220,859.0
39.776657785,897.0
39.802918350,892.0
39.829178915,913.0
39.855439480,928.0
39.881700045,981.0
39.907960610,987.0
39.934221175,1026.0
39.960481740,1062.0
39.986742305,1019.0
40.013002870,1088.0
40.039263435,1148.0
40.065524000,1171.0
40.091784565,1111.0
40.118045130,1123.0
40.144305695,1219.0
40.170566260,1287.0
40.196826825,1288.0
40.223087390,1291.0
40.249347955,1312.0
40.275608520,1266.0
40.301869085,1350.0
40.328129650,1346.0
40.354390215,1445.0
40.380650780,1418.0
40.406911345,1426.0
40.433171910,1415.0
40.459432475,1493.0
40.485693040,1458.0
40.511953605,1499.0
40.538214170,1470.0
40.564474735,1422.0
40.590735300,1529.0
40.616995865,1496.0
40.643256430,1464.0
40.669516995,1496.0
40.695777560,1489.0
40.722038126,1519.0
40.748298691,1433.0
40.774559256,1447.0
40.800819821,1456.0
40.827080386,1475.0
40.853340951,1505.0
40.879601516,1507.0
40.905862081,1500.0
40.932122646,1477.0
40.958383211,1479.0
40.984643776,1474.0
41.010904341,1524.0
41.037164906,1508.0
41.063425471,1441.0
41.089686036,1523.0
41.115946601,1448.0
41.142207166,1443.0
41.168467731,1454.0
41.194728296,1434.0
41.220988861,1375.0
41.247249426,1396.0
41.273509991,1463.0
41.299770556,1394.0
41.326031121,1403.0
41.352291686,1423.0
41.378552251,1394.0
41.404812816,1405.0
41.431073381,1444.0
41.457333946,1427.0
41.483594511,1362.0
41.509855076,1408.0
41.536115641,1418.0
41.562376206,1403.0
41.588636771,1380.0
41.614897336,1358.0
41.641157901,1376.0
41.667418466,1418.0
41.693679031,1378.0
41.719939596,1331.0
41.746200161,1377.0
41.772460726,1334.0
41.798721291,1327.0
41.824981856,1383.0
41.851242421,1251.0
41.877502986,1365.0
41.903763551,1359.0
41.930024116,1319.0
41.956284681,1277.0
41.982545246,1228.0
42.008805811,1335.0
42.035066376,1285.0
42.061326941,1322.0
42.087587506,1314.0
42.113848071,1235.0
42.140108636,1278.0
42.166369201,1362.0
42.192629766,1260.0
42.218890331,1330.0
42.245150896,1297.0
42.271411461,1322.0
42.297672026,1237.0
42.323932591,1184.0
42.350193156,1186.0
42.376453721,1181.0
42.402714286,1166.0
42.428974851,1132.0
42.455235416,1145.0
42.481495981,1219.0
42.507756546,1174.0
42.534017111,1198.0
42.560277676,1225.0
42.586538241,1198.0
42.612798806,1130.0
42.639059371,1100.0
42.665319936,1171.0
42.691580501,1152.0
42.717841066,1132.0
42.744101631,1134.0
42.770362196,1152.0
42.796622761,1172.0
42.822883326,1146.0
42.849143891,1101.0
42.875404456,1175.0
42.901665021,1127.0
42.927925586,1159.0
42.954186151,1136.0
42.980446716,1107.0
43.006707281,1041.0
43.032967846,1122.0
43.059228411,1021.0
43.085488976,1062.0
43.111749541,1049.0
43.138010106,1060.0
43.164270671,1032.0
43.190531236,1104.0
43.216791801,1085.0
43.243052366,1006.0
43.269312931,988.0
43.295573496,979.0
43.321834061,1030.0
43.348094626,1022.0
43.374355191,958.0
43.400615756,1037.0
43.426876321,1027.0
43.453136886,1058.0
43.479397451,981.0
43.505658016,938.0
43.531918581,921.0
43.558179146,931.0
43.584439711,981.0
43.610700276,987.0
43.636960841,992.0
43.663221406,937.0
43.689481971,927.0
43.715742536,833.0
43.742003101,932.0
43.768263666,884.0
43.794524231,917.0
43.820784796,861.0
43.847045361,948.0
43.873305926,860.0
43.899566491,894.0
43.925827056,880.0
43.952087621,921.0
43.978348186,925.0
44.004608751,895.0
44.030869316,909.0
44.057129881,848.0
44.083390446,880.0
44.109651011,881.0
44.135911577,825.0
44.162172142,813.0
44.188432707,858.0
44.214693272,879.0
44.240953837,860.0
44.267214402,829.0
44.293474967,806.0
44.319735532,773.0
44.345996097,820.0
44.372256662,819.0
44.398517227,772.0
44.424777792,757.0
44.451038357,791.0
44.477298922,780.0
44.503559487,815.0
44.529820052,799.0
44.556080617,765.0
44.582341182,777.0
44.608601747,739.0
44.634862312,782.0
44.661122877,784.0
44.687383442,741.0
44.713644007,733.0
44.739904572,744.0
44.766165137,730.0
44.792425702,788.0
44.818686267,716.0
44.844946832,723.0
44.871207397,757.0
44.897467962,741.0
44.923728527,742.0
44.949989092,733.0
44.976249657,745.0
45.002510222,696.0
45.028770787,735.0
45.055031352,738.0
45.081291917,728.0
45.107552482,711.0
45.133813047,692.0
45.160073612,661.0
45.186334177,666.0
45.212594742,643.0
45.238855307,713.0
45.265115872,666.0
45.291376437,694.0
45.317637002,712.0
45.343897567,681.0
45.370158132,710.0
45.396418697,701.0
45.422679262,671.0
45.448939827,721.0
45.475200392,649.0
45.501460957,703.0
45.527721522,713.0
45.553982087,672.0
45.580242652,658.0
45.606503217,700.0
45.632763782,656.0
45.659024347,674.0
45.685284912,683.0
45.711545477,671.0
45.737806042,604.0
45.764066607,641.0
45.790327172,680.0
45.816587737,670.0
45.842848302,685.0
45.869108867,629.0
45.895369432,621.0
45.921629997,663.0
45.947890562,624.0
45.974151127,647.0
46.000411692,577.0
46.026672257,663.0
46.052932822,629.0
46.079193387,587.0
46.105453952,613.0
46.131714517,617.0
46.157975082,607.0
46.184235647,604.0
46.210496212,575.0
46.236756777,646.0
46.263017342,624.0
46.289277907,635.0
46.315538472,650.0
46.341799037,575.0
46.368059602,615.0
46.394320167,602.0
46.420580732,631.0
46.446841297,596.0
46.473101862,627.0
46.499362427,595.0
46.525622992,553.0
46.551883557,664.0
46.578144122,589.0
46.604404687,548.0
46.630665252,609.0
46.656925817,578.0
46.683186382,582.0
46.709446947,603.0
46.735707512,562.0
46.761968077,571.0
46.788228642,602.0
46.814489207,601.0
46.840749772,549.0
46.867010337,551.0
46.893270902,579.0
46.919531467,549.0
46.945792032,483.0
46.972052597,538.0
46.998313162,582.0
47.024573727,513.0
47.050834292,538.0
47.077094857,564.0
47.103355422,531.0
47.129615987,568.0
47.155876552,559.0
47.182137117,507.0
47.208397682,516.0
47.234658247,530.0
47.260918812,510.0
47.287179377,531.0
47.313439942,506.0
47.339700507,522.0
47.365961072,517.0
47.392221637,510.0
47.418482202,537.0
47.444742767,518.0
47.471003332,515.0
47.497263897,502.0
47.523524463,484.0
47.549785028,513.0
47.576045593,511.0
47.602306158,507.0
47.628566723,510.0
47.654827288,501.0
47.681087853,500.0
47.707348418,500.0
47.733608983,485.0
47.759869548,535.0
47.786130113,499.0
47.812390678,527.0
47.838651243,481.0
47.864911808,488.0
47.891172373,490.0
47.917432938,534.0
47.943693503,484.0
47.969954068,446.0
47.996214633,464.0
48.022475198,528.0
48.048735763,479.0
48.074996328,506.0
48.101256893,458.0
48.127517458,518.0
48.153778023,460.0
48.180038588,466.0
48.206299153,438.0
48.232559718,450.0
48.258820283,453.0
48.285080848,486.0
48.311341413,465.0
48.337601978,451.0
48.363862543,509.0
48.390123108,517.0
48.416383673,466.0
48.442644238,430.0
48.468904803,459.0
48.495165368,466.0
48.521425933,417.0
48.547686498,478.0
48.573947063,449.0
48.600207628,476.0
48.626468193,403.0
48.652728758,447.0
48.678989323,424.0
48.705249888,456.0
48.731510453,454.0
48.757771018,441.0
48.784031583,469.0
48.810292148,394.0
48.836552713,448.0
48.862813278,441.0
48.889073843,417.0
48.915334408,424.0
48.941594973,446.0
48.967855538,466.0
48.994116103,386.0
49.020376668,446.0
49.046637233,431.0
49.072897798,408.0
49.099158363,429.0
49.125418928,426.0
49.151679493,440.0
49.177940058,393.0
49.204200623,418.0
49.230461188,396.0
49.256721753,425.0
49.282982318,440.0
49.309242883,414.0
49.335503448,390.0
49.361764013,431.0
49.388024578,360.0
49.414285143,470.0
49.440545708,426.0
49.466806273,380.0
49.493066838,440.0
49.519327403,385.0
49.545587968,413.0
49.571848533,432.0
49.598109098,442.0
49.624369663,416.0
49.650630228,433.0
49.676890793,399.0
49.703151358,367.0
49.729411923,421.0
49.755672488,413.0
49.781933053,426.0
49.808193618,397.0
49.834454183,366.0
49.860714748,378.0
49.886975313,376.0
49.913235878,383.0
49.939496443,365.0
49.965757008,371.0
49.992017573,393.0
50.018278138,377.0
50.044538703,406.0
50.070799268,364.0
50.097059833,411.0
50.123320398,422.0
50.149580963,373.0
50.175841528,365.0
50.202102093,395.0
50.228362658,368.0
50.254623223,387.0
50.280883788,376.0
50.307144353,392.0
50.333404918,369.0
50.359665483,400.0
50.385926048,419.0
50.412186613,369.0
50.438447178,394.0
50.464707743,414.0
50.490968308,398.0
50.517228873,368.0
50.543489438,400.0
50.569750003,421.0
50.596010568,383.0
50.622271133,369.0
50.648531698,398.0
50.674792263,406.0
50.701052828,386.0
50.727313393,396.0
50.753573958,364.0
50.779834523,374.0
50.806095088,409.0
50.832355653,383.0
50.858616218,417.0
50.884876783,363.0
50.911137349,404.0
50.937397914,392.0
50.963658479,356.0
50.989919044,378.0
51.016179609,362.0
51.042440174,382.0
51.068700739,357.0
51.094961304,350.0
51.121221869,351.0
51.147482434,400.0
51.173742999,374.0
51.200003564,368.0
51.226264129,372.0
51.252524694,356.0
51.278785259,380.0
51.305045824,377.0
51.331306389,379.0
51.357566954,389.0
51.383827519,355.0
51.410088084,398.0
51.436348649,343.0
51.462609214,378.0
51.488869779,365.0
51.515130344,355.0
51.541390909,352.0
51.567651474,344.0
51.593912039,368.0
51.620172604,375.0
51.646433169,355.0
51.672693734,345.0
51.698954299,361.0
51.725214864,353.0
51.751475429,349.0
51.777735994,362.0
51.803996559,386.0
51.830257124,367.0
51.856517689,338.0
51.882778254,353.0
51.909038819,339.0
51.935299384,344.0
51.961559949,340.0
51.987820514,381.0
52.014081079,346.0
52.040341644,350.0
52.066602209,365.0
52.092862774,368.0
52.119123339,374.0
52.145383904,372.0
52.171644469,382.0
52.197905034,370.0
52.224165599,346.0
52.250426164,339.0
52.276686729,331.0
52.302947294,331.0
52.329207859,378.0
52.355468424,358.0
52.381728989,351.0
52.407989554,359.0
52.434250119,360.0
52.460510684,366.0
52.486771249,360.0
52.513031814,326.0
52.539292379,392.0
52.565552944,337.0
52.591813509,338.0
52.618074074,319.0
52.644334639,342.0
52.670595204,360.0
52.696855769,379.0
52.723116334,333.0
52.749376899,350.0
52.775637464,350.0
52.801898029,324.0
52.828158594,381.0
52.854419159,364.0
52.880679724,348.0
52.906940289,344.0
52.933200854,355.0
52.959461419,365.0
52.985721984,358.0
53.011982549,304.0
53.038243114,317.0
53.064503679,342.0
53.090764244,372.0
53.117024809,349.0
53.143285374,371.0
53.169545939,374.0
53.195806504,361.0
53.222067069,338.0
53.248327634,394.0
53.274588199,356.0
53.300848764,325.0
53.327109329,351.0
53.353369894,370.0
53.379630459,351.0
53.405891024,372.0
53.432151589,350.0
53.458412154,363.0
53.484672719,347.0
53.510933284,324.0
53.537193849,320.0
53.563454414,312.0
53.589714979,378.0
53.615975544,344.0
53.642236109,378.0
53.668496674,349.0
53.694757239,346.0
53.721017804,353.0
53.747278369,360.0
53.773538934,330.0
53.799799499,334.0
53.826060064,348.0
53.852320629,337.0
53.878581194,368.0
53.904841759,331.0
53.931102324,339.0
53.957362889,347.0
53.983623454,308.0
54.009884019,324.0
54.036144584,351.0
54.062405149,356.0
54.088665714,350.0
54.114926279,357.0
54.141186844,331.0
54.167447409,339.0
54.193707974,344.0
54.219968539,365.0
54.246229104,365.0
54.272489669,348.0
54.298750234,316.0
54.325010800,311.0
54.351271365,331.0
54.377531930,354.0
54.403792495,336.0
54.430053060,326.0
54.456313625,336.0
54.482574190,325.0
54.508834755,334.0
54.535095320,334.0
54.561355885,324.0
54.587616450,335.0
54.613877015,353.0
54.640137580,346.0
54.666398145,318.0
54.692658710,341.0
54.718919275,364.0
54.745179840,317.0
54.771440405,326.0
54.797700970,370.0
54.823961535,348.0
54.850222100,361.0
54.876482665,362.0
54.902743230,346.0
54.929003795,334.0
54.955264360,331.0
54.981524925,324.0
55.007785490,336.0
55.034046055,335.0
55.060306620,353.0
55.086567185,364.0
55.112827750,345.0
55.139088315,333.0
55.165348880,389.0
55.191609445,316.0
55.217870010,338.0
55.244130575,331.0
55.270391140,305.0
55.296651705,315.0
55.322912270,319.0
55.349172835,339.0
55.375433400,358.0
55.401693965,332.0
55.427954530,360.0
55.454215095,339.0
55.480475660,326.0
55.506736225,331.0
55.532996790,345.0
55.559257355,348.0
55.585517920,313.0
55.611778485,342.0
55.638039050,359.0
55.664299615,338.0
55.690560180,308.0
55.716820745,343.0
55.743081310,329.0
55.769341875,326.0
55.795602440,344.0
55.821863005,333.0
55.848123570,316.0
55.874384135,328.0
55.900644700,326.0
55.926905265,319.0
55.953165830,360.0
55.979426395,325.0
56.005686960,327.0
56.031947525,316.0
56.058208090,314.0
56.084468655,342.0
56.110729220,314.0
56.136989785,312.0
56.163250350,335.0
56.189510915,293.0
56.215771480,311.0
56.242032045,335.0
56.268292610,328.0
56.294553175,314.0
56.320813740,315.0
56.347074305,347.0
56.373334870,314.0
56.399595435,322.0
56.425856000,299.0
56.452116565,360.0
56.478377130,316.0
56.504637695,326.0
56.530898260,350.0
56.557158825,295.0
56.583419390,339.0
56.609679955,344.0
56.635940520,313.0
56.662201085,310.0
56.688461650,355.0
56.714722215,340.0
56.740982780,340.0
56.767243345,303.0
56.793503910,342.0
56.819764475,310.0
56.846025040,332.0
56.872285605,295.0
56.898546170,321.0
56.924806735,304.0
56.951067300,336.0
56.977327865,333.0
57.003588430,340.0
57.029848995,337.0
57.056109560,305.0
57.082370125,317.0
57.108630690,308.0
57.134891255,337.0
57.161151820,304.0
57.187412385,311.0
57.213672950,329.0
57.239933515,295.0
57.266194080,314.0
57.292454645,333.0
57.318715210,354.0
57.344975775,292.0
57.371236340,317.0
57.397496905,336.0
57.423757470,319.0
57.450018035,311.0
57.476278600,325.0
57.502539165,310.0
57.528799730,340.0
57.555060295,328.0
57.581320860,335.0
57.607581425,323.0
57.633841990,316.0
57.660102555,314.0
57.686363120,366.0
57.712623686,315.0
57.738884251,279.0
57.765144816,357.0
57.791405381,311.0
57.817665946,315.0
57.843926511,297.0
57.870187076,311.0
57.896447641,347.0
57.922708206,327.0
57.948968771,306.0
57.975229336,304.0
58.001489901,348.0
58.027750466,302.0
58.054011031,335.0
58.080271596,337.0
58.106532161,292.0
58.132792726,329.0
58.159053291,312.0
58.185313856,318.0
58.211574421,327.0
58.237834986,315.0
58.264095551,282.0
58.290356116,311.0
58.316616681,310.0
58.342877246,330.0
58.369137811,319.0
58.395398376,296.0
58.421658941,323.0
58.447919506,322.0
58.474180071,304.0
58.500440636,354.0
58.526701201,338.0
58.552961766,290.0
58.579222331,315.0
58.605482896,317.0
58.631743461,337.0
58.658004026,286.0
58.684264591,328.0
58.710525156,334.0
58.736785721,293.0
58.763046286,314.0
58.789306851,314.0
58.815567416,307.0
58.841827981,348.0
58.868088546,373.0
58.894349111,324.0
58.920609676,349.0
58.946870241,320.0
58.973130806,326.0
58.999391371,358.0
59.025651936,281.0
59.051912501,327.0
59.078173066,311.0
59.104433631,306.0
59.130694196,328.0
59.156954761,344.0
59.183215326,309.0
59.209475891,300.0
59.235736456,284.0
59.261997021,309.0
59.288257586,343.0
59.314518151,329.0
59.340778716,369.0
59.367039281,320.0
59.393299846,314.0
59.419560411,315.0
59.445820976,299.0
59.472081541,283.0
59.498342106,301.0
59.524602671,315.0
59.550863236,356.0
59.577123801,323.0
59.603384366,325.0
59.629644931,285.0
59.655905496,345.0
59.682166061,314.0
59.708426626,321.0
59.734687191,304.0
59.760947756,332.0
59.787208321,353.0
59.813468886,296.0
59.839729451,305.0
59.865990016,301.0
59.892250581,293.0
59.918511146,313.0
59.944771711,319.0
59.971032276,310.0
59.997292841,330.0
60.023553406,297.0
60.049813971,349.0
60.076074536,326.0
60.102335101,281.0
60.128595666,300.0
60.154856231,319.0
60.181116796,328.0
60.207377361,295.0
60.233637926,332.0
60.259898491,314.0
60.286159056,304.0
60.312419621,333.0
60.338680186,319.0
60.364940751,325.0
60.391201316,289.0
60.417461881,331.0
60.443722446,314.0
60.469983011,287.0
60.496243576,317.0
60.522504141,335.0
60.548764706,332.0
60.575025271,320.0
60.601285836,320.0
60.627546401,318.0
60.653806966,323.0
60.680067531,304.0
60.706328096,294.0
60.732588661,290.0
60.758849226,334.0
60.785109791,300.0
60.811370356,291.0
60.837630921,297.0
60.863891486,315.0
60.890152051,294.0
60.916412616,318.0
60.942673181,319.0
60.968933746,299.0
60.995194311,312.0
61.021454876,316.0
61.047715441,301.0
61.073976006,330.0
61.100236571,317.0
61.126497137,300.0
61.152757702,298.0
61.179018267,283.0
61.205278832,307.0
61.231539397,329.0
61.257799962,312.0
61.284060527,323.0
61.310321092,313.0
61.336581657,295.0
61.362842222,292.0
61.389102787,324.0
61.415363352,323.0
61.441623917,320.0
61.467884482,295.0
61.494145047,331.0
61.520405612,300.0
61.546666177,329.0
61.572926742,349.0
61.599187307,291.0
61.625447872,303.0
61.651708437,285.0
61.677969002,299.0
61.704229567,311.0
61.730490132,281.0
61.756750697,326.0
61.783011262,332.0
61.809271827,320.0
61.835532392,330.0
61.861792957,317.0
61.888053522,305.0
61.914314087,312.0
61.940574652,298.0
61.966835217,298.0
61.993095782,292.0
62.019356347,319.0
62.045616912,314.0
62.071877477,306.0
62.098138042,306.0
62.124398607,289.0
62.150659172,337.0
62.176919737,323.0
62.203180302,297.0
62.229440867,287.0
62.255701432,316.0
62.281961997,289.0
62.308222562,303.0
62.334483127,297.0
62.360743692,328.0
62.387004257,300.0
62.413264822,301.0
62.439525387,282.0
62.465785952,317.0
62.492046517,318.0
62.518307082,311.0
62.544567647,289.0
62.570828212,320.0
62.597088777,303.0
62.623349342,294.0
62.649609907,306.0
62.675870472,309.0
62.702131037,311.0
62.728391602,291.0
62.754652167,288.0
62.780912732,295.0
62.807173297,288.0
62.833433862,290.0
62.859694427,281.0
62.885954992,289.0
62.912215557,298.0
62.938476122,279.0
62.964736687,333.0
62.990997252,314.0
63.017257817,306.0
63.043518382,287.0
63.069778947,339.0
63.096039512,328.0
63.122300077,276.0
63.148560642,317.0
63.174821207,300.0
63.201081772,317.0
63.227342337,312.0
63.253602902,315.0
63.279863467,305.0
63.306124032,267.0
63.332384597,280.0
63.358645162,276.0
63.384905727,322.0
63.411166292,341.0
63.437426857,303.0
63.463687422,326.0
63.489947987,292.0
63.516208552,266.0
63.542469117,304.0
63.568729682,314.0
63.594990247,267.0
63.621250812,279.0
63.647511377,311.0
63.673771942,311.0
63.700032507,332.0
63.726293072,342.0
63.752553637,283.0
63.778814202,318.0
63.805074767,308.0
63.831335332,290.0
63.857595897,290.0
63.883856462,318.0
63.910117027,320.0
63.936377592,291.0
63.962638157,307.0
63.988898722,287.0
64.015159287,326.0
64.041419852,281.0
64.067680417,290.0
64.093940982,281.0
64.120201547,317.0
64.146462112,300.0
64.172722677,312.0
64.198983242,268.0
64.225243807,269.0
64.251504372,321.0
64.277764937,287.0
64.304025502,303.0
64.330286067,284.0
64.356546632,323.0
64.382807197,283.0
64.409067762,326.0
64.435328327,285.0
64.461588892,279.0
64.487849457,270.0
64.514110023,300.0
64.540370588,313.0
64.566631153,320.0
64.592891718,301.0
64.619152283,260.0
64.645412848,300.0
64.671673413,271.0
64.697933978,298.0
64.724194543,273.0
64.750455108,304.0
64.776715673,299.0
64.802976238,283.0
64.829236803,296.0
64.855497368,294.0
64.881757933,258.0
64.908018498,289.0
64.934279063,320.0
64.960539628,279.0
64.986800193,296.0
65.013060758,294.0
65.039321323,259.0
65.065581888,256.0
65.091842453,270.0
65.118103018,300.0
65.144363583,280.0
65.170624148,271.0
65.196884713,305.0
65.223145278,267.0
65.249405843,338.0
65.275666408,278.0
65.301926973,296.0
65.328187538,307.0
65.354448103,313.0
65.380708668,279.0
65.406969233,291.0
65.433229798,256.0
65.459490363,268.0
65.485750928,305.0
65.512011493,265.0
65.538272058,298.0
65.564532623,268.0
65.590793188,266.0
65.617053753,296.0
65.643314318,282.0
65.669574883,289.0
65.695835448,287.0
65.722096013,272.0
65.748356578,280.0
65.774617143,282.0
65.800877708,281.0
65.827138273,278.0
65.853398838,274.0
65.879659403,264.0
65.905919968,285.0
65.932180533,295.0
65.958441098,294.0
65.984701663,294.0
66.010962228,298.0
66.037222793,269.0
66.063483358,278.0
66.089743923,295.0
66.116004488,282.0
66.142265053,299.0
66.168525618,294.0
66.194786183,273.0
66.221046748,336.0
66.247307313,263.0
66.273567878,266.0
66.299828443,291.0
66.326089008,286.0
66.352349573,277.0
66.378610138,315.0
66.404870703,284.0
66.431131268,268.0
66.457391833,299.0
66.483652398,281.0
66.509912963,260.0
66.536173528,293.0
66.562434093,263.0
66.588694658,251.0
66.614955223,259.0
66.641215788,286.0
66.667476353,293.0
66.693736918,262.0
66.719997483,289.0
66.746258048,302.0
66.772518613,304.0
66.798779178,261.0
66.825039743,285.0
66.851300308,250.0
66.877560873,263.0
66.903821438,249.0
66.930082003,255.0
66.956342568,246.0
66.982603133,291.0
67.008863698,262.0
67.035124263,292.0
67.061384828,258.0
67.087645393,249.0
67.113905958,262.0
67.140166523,273.0
67.166427088,293.0
67.192687653,281.0
67.218948218,259.0
67.245208783,273.0
67.271469348,272.0
67.297729913,276.0
67.323990478,270.0
67.350251043,292.0
67.376511608,260.0
67.402772173,291.0
67.429032738,294.0
67.455293303,266.0
67.481553868,264.0
67.507814433,256.0
67.534074998,253.0
67.560335563,240.0
67.586596128,247.0
67.612856693,274.0
67.639117258,280.0
67.665377823,286.0
67.691638388,277.0
67.717898953,295.0
67.744159518,275.0
67.770420083,243.0
67.796680648,270.0
67.822941213,266.0
67.849201778,254.0
67.875462343,253.0
67.901722909,271.0
67.927983474,281.0
67.954244039,269.0
67.980504604,271.0
68.006765169,276.0
68.033025734,289.0
68.059286299,259.0
68.085546864,252.0
68.111807429,265.0
68.138067994,281.0
68.164328559,257.0
68.190589124,242.0
68.216849689,256.0
68.243110254,282.0
68.269370819,271.0
68.295631384,279.0
68.321891949,245.0
68.348152514,275.0
68.374413079,277.0
68.400673644,284.0
68.426934209,269.0
68.453194774,290.0
68.479455339,263.0
68.505715904,270.0
68.531976469,238.0
68.558237034,245.0
68.584497599,272.0
68.610758164,269.0
68.637018729,251.0
68.663279294,259.0
68.689539859,244.0
68.715800424,263.0
68.742060989,276.0
68.768321554,243.0
68.794582119,265.0
68.820842684,255.0
68.847103249,287.0
68.873363814,286.0
68.899624379,277.0
68.925884944,248.0
68.952145509,286.0
68.978406074,270.0
69.004666639,253.0
69.030927204,245.0
69.057187769,266.0
69.083448334,270.0
69.109708899,267.0
69.135969464,243.0
69.162230029,249.0
69.188490594,260.0
69.214751159,257.0
69.241011724,230.0
69.267272289,248.0
69.293532854,265.0
69.319793419,268.0
69.346053984,260.0
69.372314549,249.0
69.398575114,249.0
69.424835679,253.0
69.451096244,251.0
69.477356809,248.0
69.503617374,249.0
69.529877939,236.0
69.556138504,248.0
69.582399069,268.0
69.608659634,236.0
69.634920199,254.0
69.661180764,243.0
69.687441329,276.0
69.713701894,250.0
69.739962459,247.0
69.766223024,273.0
69.792483589,280.0
69.818744154,264.0
69.845004719,233.0
69.871265284,292.0
69.897525849,233.0
69.923786414,252.0
69.950046979,253.0
69.976307544,251.0
70.002568109,253.0
70.028828674,286.0
70.055089239,277.0
70.081349804,243.0
70.107610369,247.0
70.133870934,258.0
70.160131499,250.0
70.186392064,254.0
70.212652629,268.0
70.238913194,247.0
70.265173759,268.0
70.291434324,293.0
70.317694889,266.0
70.343955454,256.0
70.370216019,267.0
70.396476584,285.0
70.422737149,278.0
70.448997714,262.0
70.475258279,284.0
70.501518844,237.0
70.527779409,270.0
70.554039974,276.0
70.580300539,274.0
70.606561104,258.0
70.632821669,236.0
70.659082234,248.0
70.685342799,261.0
70.711603364,273.0
70.737863929,254.0
70.764124494,280.0
70.790385059,270.0
70.816645624,251.0
70.842906189,274.0
70.869166754,246.0
70.895427319,269.0
70.921687884,255.0
70.947948449,281.0
70.974209014,225.0
71.000469579,273.0
71.026730144,280.0
71.052990709,291.0
71.079251274,257.0
71.105511839,258.0
71.131772404,292.0
71.158032969,252.0
71.184293534,275.0
71.210554099,251.0
71.236814664,268.0
71.263075229,286.0
71.289335794,307.0
71.315596360,289.0
71.341856925,275.0
71.368117490,277.0
71.394378055,273.0
71.420638620,280.0
71.446899185,289.0
71.473159750,270.0
71.499420315,295.0
71.525680880,254.0
71.551941445,292.0
71.578202010,304.0
71.604462575,244.0
71.630723140,252.0
71.656983705,264.0
71.683244270,253.0
71.709504835,264.0
71.735765400,263.0
71.762025965,291.0
71.788286530,272.0
71.814547095,275.0
71.840807660,280.0
71.867068225,252.0
71.893328790,262.0
71.919589355,278.0
71.945849920,279.0
71.972110485,293.0
71.998371050,300.0
72.024631615,299.0
72.050892180,296.0
72.077152745,277.0
72.103413310,301.0
72.129673875,301.0
72.155934440,259.0
72.182195005,291.0
72.208455570,275.0
72.234716135,306.0
72.260976700,294.0
72.287237265,329.0
72.313497830,291.0
72.339758395,293.0
72.366018960,307.0
72.392279525,276.0
72.418540090,293.0
72.444800655,279.0
72.471061220,302.0
72.497321785,284.0
72.523582350,261.0
72.549842915,312.0
72.576103480,286.0
72.602364045,312.0
72.628624610,328.0
72.654885175,307.0
72.681145740,319.0
72.707406305,306.0
72.733666870,310.0
72.759927435,309.0
72.786188000,327.0
72.812448565,307.0
72.838709130,345.0
72.864969695,348.0
72.891230260,354.0
72.917490825,312.0
72.943751390,343.0
72.970011955,354.0
72.996272520,351.0
73.022533085,359.0
73.048793650,359.0
73.075054215,354.0
73.101314780,380.0
73.127575345,373.0
73.153835910,365.0
73.180096475,421.0
73.206357040,380.0
73.232617605,352.0
73.258878170,377.0
73.285138735,369.0
73.311399300,359.0
73.337659865,349.0
73.363920430,359.0
73.390180995,374.0
73.416441560,355.0
73.442702125,381.0
73.468962690,355.0
73.495223255,341.0
73.521483820,352.0
73.547744385,325.0
73.574004950,375.0
73.600265515,394.0
73.626526080,361.0
73.652786645,353.0
73.679047210,342.0
73.705307775,353.0
73.731568340,355.0
73.757828905,351.0
73.784089470,300.0
73.810350035,340.0
73.836610600,341.0
73.862871165,302.0
73.889131730,348.0
73.915392295,321.0
73.941652860,353.0
73.967913425,334.0
73.994173990,353.0
74.020434555,348.0
74.046695120,333.0
74.072955685,326.0
74.099216250,352.0
74.125476815,302.0
74.151737380,323.0
74.177997945,322.0
74.204258510,314.0
74.230519075,303.0
74.256779640,321.0
74.283040205,292.0
74.309300770,333.0
74.335561335,326.0
74.361821900,298.0
74.388082465,313.0
74.414343030,294.0
74.440603595,317.0
74.466864160,316.0
74.493124725,294.0
74.519385290,313.0
74.545645855,314.0
74.571906420,303.0
74.598166985,334.0
74.624427550,284.0
74.650688115,279.0
74.676948680,305.0
74.703209246,308.0
74.729469811,304.0
74.755730376,287.0
74.781990941,280.0
74.808251506,307.0
74.834512071,284.0
74.860772636,277.0
74.887033201,290.0
74.913293766,325.0
74.939554331,280.0
74.965814896,298.0
74.992075461,269.0
75.018336026,302.0
75.044596591,279.0
75.070857156,292.0
75.097117721,270.0
75.123378286,277.0
75.149638851,261.0
75.175899416,272.0
75.202159981,288.0
75.228420546,260.0
75.254681111,300.0
75.280941676,268.0
75.307202241,293.0
75.333462806,267.0
75.359723371,262.0
75.385983936,315.0
75.412244501,281.0
75.438505066,263.0
75.464765631,268.0
75.491026196,282.0
75.517286761,261.0
75.543547326,272.0
75.569807891,263.0
75.596068456,275.0
75.622329021,263.0
75.648589586,262.0
75.674850151,271.0
75.701110716,273.0
75.727371281,275.0
75.753631846,269.0
75.779892411,259.0
75.806152976,258.0
75.832413541,295.0
75.858674106,255.0
75.884934671,279.0
75.911195236,291.0
75.937455801,259.0
75.963716366,276.0
75.989976931,262.0
76.016237496,247.0
76.042498061,261.0
76.068758626,260.0
76.095019191,223.0
76.121279756,243.0
76.147540321,228.0
76.173800886,260.0
76.200061451,242.0
76.226322016,243.0
76.252582581,259.0
76.278843146,252.0
76.305103711,267.0
76.331364276,264.0
76.357624841,278.0
76.383885406,270.0
76.410145971,271.0
76.436406536,243.0
76.462667101,267.0
76.488927666,269.0
76.515188231,244.0
76.541448796,241.0
76.567709361,257.0
76.593969926,246.0
76.620230491,256.0
76.646491056,238.0
76.672751621,211.0
76.699012186,276.0
76.725272751,288.0
76.751533316,229.0
76.777793881,248.0
76.804054446,250.0
76.830315011,248.0
76.856575576,278.0
76.882836141,260.0
76.909096706,282.0
76.935357271,262.0
76.961617836,246.0
76.987878401,274.0
77.014138966,233.0
77.040399531,250.0
77.066660096,253.0
77.092920661,236.0
77.119181226,230.0
77.145441791,255.0
77.171702356,246.0
77.197962921,260.0
77.224223486,277.0
77.250484051,235.0
77.276744616,232.0
77.303005181,257.0
77.329265746,244.0
77.355526311,239.0
77.381786876,265.0
77.408047441,241.0
77.434308006,236.0
77.460568571,243.0
77.486829136,247.0
77.513089701,246.0
77.539350266,213.0
77.565610831,228.0
77.591871396,255.0
77.618131961,224.0
77.644392526,239.0
77.670653091,260.0
77.696913656,266.0
77.723174221,247.0
77.749434786,197.0
77.775695351,261.0
77.801955916,270.0
77.828216481,215.0
77.854477046,244.0
77.880737611,228.0
77.906998176,252.0
77.933258741,238.0
77.959519306,268.0
77.985779871,226.0
78.012040436,221.0
78.038301001,241.0
78.064561566,231.0
78.090822131,259.0
78.117082697,240.0
78.143343262,241.0
78.169603827,268.0
78.195864392,220.0
78.222124957,230.0
78.248385522,249.0
78.274646087,213.0
78.300906652,226.0
78.327167217,242.0
78.353427782,277.0
78.379688347,234.0
78.405948912,247.0
78.432209477,247.0
78.458470042,235.0
78.484730607,253.0
78.510991172,236.0
78.537251737,208.0
78.563512302,248.0
78.589772867,233.0
78.616033432,243.0
78.642293997,235.0
78.668554562,220.0
78.694815127,235.0
78.721075692,238.0
78.747336257,239.0
78.773596822,248.0
78.799857387,217.0
78.826117952,223.0
78.852378517,259.0
78.878639082,245.0
78.904899647,225.0
78.931160212,256.0
78.957420777,218.0
78.983681342,220.0
79.009941907,236.0
79.036202472,223.0
79.062463037,218.0
79.088723602,258.0
79.114984167,241.0
79.141244732,213.0
79.167505297,213.0
79.193765862,222.0
79.220026427,238.0
79.246286992,254.0
79.272547557,253.0
79.298808122,228.0
79.325068687,240.0
79.351329252,264.0
79.377589817,229.0
79.403850382,255.0
79.430110947,239.0
79.456371512,233.0
79.482632077,199.0
79.508892642,250.0
79.535153207,250.0
79.561413772,250.0
79.587674337,242.0
79.613934902,258.0
79.640195467,206.0
79.666456032,238.0
79.692716597,234.0
79.718977162,252.0
79.745237727,226.0
79.771498292,255.0
79.797758857,224.0
79.824019422,243.0
79.850279987,228.0
79.876540552,236.0
79.902801117,246.0
79.929061682,223.0
79.955322247,252.0
79.981582812,218.0
80.007843377,224.0
80.034103942,227.0
80.060364507,224.0
80.086625072,259.0
80.112885637,248.0
80.139146202,255.0
80.165406767,232.0
80.191667332,228.0
80.217927897,243.0
80.244188462,224.0
80.270449027,237.0
80.296709592,259.0
80.322970157,211.0
80.349230722,217.0
80.375491287,225.0
80.401751852,240.0
80.428012417,215.0
80.454272982,223.0
80.480533547,242.0
80.506794112,262.0
80.533054677,229.0
80.559315242,237.0
80.585575807,231.0
80.611836372,232.0
80.638096937,229.0
80.664357502,271.0
80.690618067,223.0
80.716878632,247.0
80.743139197,228.0
80.769399762,231.0
80.795660327,238.0
80.821920892,241.0
80.848181457,214.0
80.874442022,221.0
80.900702587,238.0
80.926963152,222.0
80.953223717,228.0
80.979484282,228.0
81.005744847,250.0
81.032005412,233.0
81.058265977,227.0
81.084526542,238.0
81.110787107,221.0
81.137047672,244.0
81.163308237,257.0
81.189568802,235.0
81.215829367,217.0
81.242089932,222.0
81.268350497,231.0
81.294611062,216.0
81.320871627,265.0
81.347132192,217.0
81.373392757,226.0
81.399653322,230.0
81.425913887,229.0
81.452174452,223.0
81.478435017,256.0
81.504695583,245.0
81.530956148,227.0
81.557216713,224.0
81.583477278,216.0
81.609737843,210.0
81.635998408,233.0
81.662258973,220.0
81.688519538,213.0
81.714780103,231.0
81.741040668,228.0
81.767301233,236.0
81.793561798,247.0
81.819822363,228.0
81.846082928,242.0
81.872343493,217.0
81.898604058,215.0
81.924864623,239.0
81.951125188,227.0
81.977385753,237.0
82.003646318,218.0
82.029906883,220.0
82.056167448,199.0
82.082428013,201.0
82.108688578,237.0
82.134949143,240.0
82.161209708,212.0
82.187470273,215.0
82.213730838,228.0
82.239991403,233.0
82.266251968,196.0
82.292512533,235.0
82.318773098,226.0
82.345033663,208.0
82.371294228,240.0
82.397554793,228.0
82.423815358,226.0
82.450075923,235.0
82.476336488,215.0
82.502597053,216.0
82.528857618,234.0
82.555118183,222.0
82.581378748,240.0
82.607639313,228.0
82.633899878,205.0
82.660160443,206.0
82.686421008,207.0
82.712681573,225.0
82.738942138,193.0
82.765202703,234.0
82.791463268,207.0
82.817723833,231.0
82.843984398,262.0
82.870244963,203.0
82.896505528,228.0
82.922766093,225.0
82.949026658,223.0
82.975287223,233.0
83.001547788,214.0
83.027808353,215.0
83.054068918,213.0
83.080329483,243.0
83.106590048,197.0
83.132850613,240.0
83.159111178,216.0
83.185371743,205.0
83.211632308,238.0
83.237892873,200.0
83.264153438,250.0
83.290414003,187.0
83.316674568,224.0
83.342935133,200.0
83.369195698,215.0
83.395456263,194.0
83.421716828,206.0
83.447977393,232.0
83.474237958,211.0
83.500498523,237.0
83.526759088,239.0
83.553019653,227.0
83.579280218,226.0
83.605540783,257.0
83.631801348,224.0
83.658061913,210.0
83.684322478,241.0
83.710583043,218.0
83.736843608,204.0
83.763104173,195.0
83.789364738,257.0
83.815625303,220.0
83.841885868,255.0
83.868146433,219.0
83.894406998,219.0
83.920667563,221.0
83.946928128,224.0
83.973188693,205.0
83.999449258,234.0
84.025709823,207.0
84.051970388,245.0
84.078230953,231.0
84.104491518,220.0
84.130752083,236.0
84.157012648,218.0
84.183273213,218.0
84.209533778,232.0
84.235794343,218.0
84.262054908,225.0
84.288315473,202.0
84.314576038,197.0
84.340836603,215.0
84.367097168,247.0
84.393357733,201.0
84.419618298,216.0
84.445878863,251.0
84.472139428,203.0
84.498399993,210.0
84.524660558,231.0
84.550921123,233.0
84.577181688,225.0
84.603442253,210.0
84.629702818,215.0
84.655963383,186.0
84.682223948,200.0
84.708484513,232.0
84.734745078,218.0
84.761005643,235.0
84.787266208,217.0
84.813526773,220.0
84.839787338,203.0
84.866047903,208.0
84.892308469,213.0
84.918569034,207.0
84.944829599,204.0
84.971090164,203.0
84.997350729,210.0
85.023611294,203.0
85.049871859,237.0
85.076132424,223.0
85.102392989,209.0
85.128653554,224.0
85.154914119,210.0
85.181174684,228.0
85.207435249,225.0
85.233695814,209.0
85.259956379,255.0
85.286216944,231.0
85.312477509,200.0
85.338738074,223.0
85.364998639,223.0
85.391259204,196.0
85.417519769,211.0
85.443780334,198.0
85.470040899,216.0
85.496301464,224.0
85.522562029,215.0
85.548822594,203.0
85.575083159,208.0
85.601343724,223.0
85.627604289,222.0
85.653864854,222.0
85.680125419,236.0
85.706385984,192.0
85.732646549,196.0
85.758907114,228.0
85.785167679,211.0
85.811428244,213.0
85.837688809,243.0
85.863949374,220.0
85.890209939,207.0
85.916470504,238.0
85.942731069,208.0
85.968991634,183.0
85.995252199,240.0
86.021512764,227.0
86.047773329,194.0
86.074033894,219.0
86.100294459,189.0
86.126555024,203.0
86.152815589,204.0
86.179076154,212.0
86.205336719,194.0
86.231597284,218.0
86.257857849,205.0
86.284118414,255.0
86.310378979,225.0
86.336639544,233.0
86.362900109,225.0
86.389160674,212.0
86.415421239,193.0
86.441681804,210.0
86.467942369,210.0
86.494202934,185.0
86.520463499,220.0
86.546724064,203.0
86.572984629,232.0
86.599245194,218.0
86.625505759,211.0
86.651766324,213.0
86.678026889,215.0
86.704287454,224.0
86.730548019,220.0
86.756808584,221.0
86.783069149,220.0
86.809329714,234.0
86.835590279,214.0
86.861850844,226.0
86.888111409,209.0
86.914371974,255.0
86.940632539,221.0
86.966893104,214.0
86.993153669,215.0
87.019414234,205.0
87.045674799,230.0
87.071935364,230.0
87.098195929,226.0
87.124456494,218.0
87.150717059,257.0
87.176977624,216.0
87.203238189,241.0
87.229498754,201.0
87.255759319,223.0
87.282019884,240.0
87.308280449,220.0
87.334541014,225.0
87.360801579,235.0
87.387062144,261.0
87.413322709,207.0
87.439583274,246.0
87.465843839,201.0
87.492104404,206.0
87.518364969,238.0
87.544625534,215.0
87.570886099,260.0
87.597146664,232.0
87.623407229,233.0
87.649667794,223.0
87.675928359,224.0
87.702188924,245.0
87.728449489,237.0
87.754710054,230.0
87.780970619,235.0
87.807231184,216.0
87.833491749,245.0
87.859752314,233.0
87.886012879,201.0
87.912273444,233.0
87.938534009,246.0
87.964794574,238.0
87.991055139,211.0
88.017315704,246.0
88.043576269,233.0
88.069836834,230.0
88.096097399,235.0
88.122357964,243.0
88.148618529,201.0
88.174879094,228.0
88.201139659,244.0
88.227400224,261.0
88.253660789,249.0
88.279921354,227.0
88.306181920,222.0
88.332442485,219.0
88.358703050,253.0
88.384963615,221.0
88.411224180,223.0
88.437484745,244.0
88.463745310,208.0
88.490005875,208.0
88.516266440,222.0
88.542527005,230.0
88.568787570,215.0
88.595048135,199.0
88.621308700,233.0
88.647569265,198.0
88.673829830,212.0
88.700090395,254.0
88.726350960,205.0
88.752611525,197.0
88.778872090,245.0
88.805132655,238.0
88.831393220,230.0
88.857653785,212.0
88.883914350,246.0
88.910174915,234.0
88.936435480,238.0
88.962696045,205.0
88.988956610,215.0
89.015217175,202.0
89.041477740,211.0
89.067738305,221.0
89.093998870,223.0
89.120259435,229.0
89.146520000,244.0
89.172780565,231.0
89.199041130,217.0
89.225301695,239.0
89.251562260,232.0
89.277822825,223.0
89.304083390,241.0
89.330343955,205.0
89.356604520,227.0
89.382865085,214.0
89.409125650,233.0
89.435386215,233.0
89.461646780,230.0
89.487907345,243.0
89.514167910,234.0
89.540428475,207.0
89.566689040,231.0
89.592949605,234.0
89.619210170,212.0
89.645470735,229.0
89.671731300,222.0
89.697991865,243.0
89.724252430,206.0
89.750512995,211.0
89.776773560,222.0
89.803034125,207.0
89.829294690,215.0
89.855555255,225.0
89.881815820,197.0
89.908076385,201.0
89.934336950,204.0
89.960597515,238.0
89.986858080,242.0
